Tiempo_s,Valor
0.097390000000596,1.43765567765568
4.38096100001037,1.54241758241758
4.58826000000536,1.60769230769231
5.02238199999928,1.65362637362637
5.36446000000834,3.20410256410256
5.62313099999726,1.66571428571429
5.86159400001168,1.79545787545788
5.92503700000048,2.19516483516483
5.95974500000477,1.4021978021978
6.16427799999714,1.36996336996337
6.35647900000215,1.33208791208791
6.64223800000548,1.35626373626374
6.7800720000118,1.4247619047619
6.9454130000025,1.44893772893773
7.02001200000942,2.46351648351648
7.1162349999994,1.49406593406593
7.26280500000715,1.5851282051282
7.43688199999928,2.01304029304029
7.62276600000262,1.43201465201465
7.84552300000191,1.33450549450549
8.06579399999976,1.32
8.22486400000751,1.37721611721612
8.38218700000644,1.42637362637363
8.4984619999975,1.51663003663004
8.62660500000417,1.43282051282051
8.67087100000679,1.5440293040293
8.72416400000453,1.67296703296703
8.7692349999994,1.99047619047619
8.82869099999964,1.72534798534799
8.8880530000031,1.30952380952381
9.00443100000918,1.31919413919414
9.08254299999773,1.29663003663004
9.15767500001192,1.36190476190476
9.22961100000143,1.3796336996337
9.28646000000835,2.85677655677656
9.35726800000668,1.43765567765568
9.39326800000668,1.5440293040293
9.42798700000346,1.99289377289377
9.47565200001001,1.30871794871795
9.50915100000799,1.22893772893773
9.5504090000093,1.32322344322344
9.60483900000155,1.32725274725275
9.63894400000572,1.36754578754579
9.68305200000107,2.77538461538462
9.71826399999857,1.46102564102564
9.75630200000107,1.62542124542125
9.81945100000501,2.11457875457875
9.85627000001073,1.32483516483516
9.93555500000715,1.25875457875458
10.0382740000039,1.31274725274725
10.1113000000119,1.37641025641026
10.1741490000039,1.36432234432234
10.2432380000055,2.06300366300366
10.2821400000006,1.34901098901099
10.3468819999993,1.57868131868132
10.3834460000098,2.06300366300366
10.4239660000056,1.2378021978022
10.4780930000097,1.41347985347985
10.5174560000002,1.49809523809524
10.5687559999973,1.57142857142857
10.6035160000026,1.89216117216117
10.6416380000114,1.63992673992674
10.6943589999974,1.73824175824176
10.7353640000075,2.21128205128205
10.7951930000037,1.51824175824176
10.8352960000038,1.36029304029304
10.8899670000076,1.20395604395604
10.9364590000063,1.07340659340659
11.0059090000093,1.18139194139194
11.0650410000086,1.36835164835165
11.1292190000117,1.46424908424908
11.2007610000074,1.6818315018315
11.2557330000103,2.18227106227106
11.292700000003,1.67941391941392
11.3539800000042,1.48600732600733
11.394375,1.47391941391941
11.4389750000089,1.47230769230769
11.4884780000001,1.51904761904762
11.5253310000002,1.5440293040293
11.5790040000081,1.55934065934066
11.6172460000068,1.68908424908425
11.6747419999987,1.61010989010989
11.7224530000091,1.71970695970696
11.7620490000099,2.14520146520147
11.8178130000085,1.62461538461538
11.8713790000081,1.34901098901099
11.9447070000023,1.32805860805861
12.0346539999992,1.31838827838828
12.1183440000117,1.36351648351648
12.1938360000104,1.42153846153846
12.2563220000118,1.48117216117216
12.2988290000111,1.48117216117216
12.3609150000066,3.1992673992674
12.4179440000057,1.5214652014652
12.475601000011,1.66168498168498
12.5430350000113,2.20161172161172
12.5892590000033,1.29098901098901
12.6504390000105,1.31758241758242
12.6912580000013,1.29985347985348
12.771327000007,1.32
12.8630050000101,1.39655677655678
12.9354880000055,1.49084249084249
13.0525040000081,1.50373626373626
13.1188710000068,2.13150183150183
13.1923660000116,1.52227106227106
13.3505810000002,1.64556776556777
13.423751000002,2.09443223443223
13.5453040000051,1.47472527472527
13.7102250000089,1.3159706959707
13.9283969999999,1.34739926739927
14.1465090000033,1.36673992673993
14.342248999998,1.40542124542125
14.490650000006,1.47391941391941
14.6179210000038,1.57384615384615
14.7687090000063,1.54
14.8863090000004,1.33369963369963
14.9360050000101,1.96388278388278
14.9928110000044,2.24029304029304
15.1006340000033,2.19194139194139
15.2052310000062,1.36432234432234
15.2746120000035,1.29421245421245
15.3513930000067,1.27326007326007
15.3934440000057,1.32564102564103
15.4656300000101,1.42879120879121
15.5089820000082,1.47794871794872
15.5735830000043,1.49970695970696
15.6184880000055,3.19040293040293
15.7122349999994,1.56498168498168
15.7762540000081,1.68827838827839
15.855001000002,2.14278388278388
15.8990970000029,1.34739926739927
15.9509650000036,1.31194139194139
16.0009390000105,1.31838827838828
16.0598159999996,1.32241758241758
16.1003630000055,1.38043956043956
16.1395340000093,1.45054945054945
16.208998999998,1.53113553113553
16.2839240000099,1.57304029304029
16.3266780000031,1.52952380952381
16.3853870000094,1.60205128205128
16.4235139999986,1.97355311355311
16.4677199999988,1.59399267399267
16.5405990000069,1.31355311355311
16.5932269999981,1.31677655677656
16.6632170000076,1.35142857142857
16.7349880000055,1.40461538461538
16.7788980000019,1.46021978021978
16.8400680000037,1.59238095238095
16.8871620000005,1.52307692307692
16.9789580000043,1.13062271062271
17.0379540000111,1.60849816849817
17.1187040000111,1.83575091575092
17.1736389999986,2.07912087912088
17.2422540000081,1.37318681318681
17.2913229999989,1.4021978021978
17.3627320000082,1.39655677655678
17.4187100000083,1.40703296703297
17.4926780000031,1.46344322344322
17.5703280000091,1.54080586080586
17.6114680000097,1.54080586080586
17.6501300000101,2.60937728937729
17.7233280000091,1.56417582417582
17.8013700000048,1.71970695970696
17.8598190000057,2.09201465201465
17.9223530000001,1.2829304029304
17.9722779999971,1.31838827838828
18.0742810000032,1.32322344322344
18.1825130000114,1.34739926739927
18.3122960000038,1.39736263736264
18.4083800000101,1.49970695970696
18.4870429999977,1.4843956043956
18.5767520000041,1.15399267399267
18.654151000008,1.62864468864469
18.729826000005,1.87282051282051
18.8001400000006,2.03399267399267
18.8851740000099,1.35626373626374
18.9353780000061,1.35626373626374
19.0133610000014,1.35868131868132
19.0607370000035,1.38446886446886
19.0969730000049,1.4618315018315
19.1602950000018,1.45538461538462
19.1979029999971,3.1847619047619
19.2667559999973,1.56981684981685
19.3252709999979,1.70923076923077
19.3980320000052,2.12344322344322
19.4581450000107,1.37238095238095
19.5333030000031,1.30630036630037
19.5879420000017,1.33289377289377
19.6389880000055,1.32805860805861
19.6773299999982,1.38527472527473
19.7425860000104,1.45699633699634
19.7818519999981,1.88168498168498
19.8403320000023,1.53758241758242
19.9048470000029,1.62783882783883
19.96025,2.05091575091575
20.0428350000083,1.5214652014652
20.129026000008,1.35223443223443
20.169126000002,1.39333333333333
20.2318110000044,1.40622710622711
20.2944560000002,1.45135531135531
20.3482320000082,1.56175824175824
20.415574000001,1.53516483516484
20.4596420000046,1.40542124542125
20.5409080000073,1.62864468864469
20.6542939999998,1.91472527472527
20.794651000008,1.89216117216117
20.9877030000091,1.30307692307692
21.1515799999982,1.34095238095238
21.3212980000079,1.32886446886447
21.4667310000062,1.38285714285714
21.551400000006,1.46989010989011
21.6324120000005,1.49648351648352
21.6880420000106,2.37245421245421
21.7517030000091,1.49648351648352
21.7880190000087,1.61494505494505
21.8691469999999,2.07025641025641
21.9187240000069,1.43362637362637
21.9936319999993,1.32241758241758
22.0593369999975,1.35384615384615
22.1250540000051,1.3756043956044
22.2275729999989,1.44410256410256
22.2873299999982,1.51260073260073
22.3449160000086,1.50857142857143
22.3848800000101,2.70446886446886
22.4196570000052,1.58754578754579
22.4676720000058,1.71164835164835
22.5285659999996,2.18468864468864
22.5894189999998,1.49245421245421
22.6439780000001,1.34981684981685
22.719050999999,1.34901098901099
22.7567040000111,1.35062271062271
22.8237190000117,1.3570695970696
22.8619870000035,1.44571428571429
22.9029479999989,1.4392673992674
22.9424560000002,1.74388278388278
22.9759540000111,1.51904761904762
23.0542040000111,1.75032967032967
23.1249100000113,2.13553113553114
23.1707590000033,1.25794871794872
23.2118819999993,1.27648351648352
23.2696580000073,1.28373626373626
23.3237370000035,1.3425641025641
23.4015879999995,1.50695970695971
23.4685279999971,1.45619047619048
23.5659930000007,1.22007326007326
23.6630579999983,1.58029304029304
23.7463830000013,1.86556776556777
23.834976000011,1.93648351648352
23.9371570000052,1.26520146520147
24.0382110000104,1.33531135531136
24.1320860000104,1.31919413919414
24.1835590000004,1.38124542124542
24.2385190000087,1.44732600732601
24.2920670000017,2.37567765567766
24.362101000011,1.49970695970696
24.4340330000073,1.64637362637363
24.509751000002,2.15487179487179
24.5642530000061,1.40703296703297
24.6417470000088,1.28454212454212
24.6952680000067,1.33772893772894
24.7519980000108,1.3570695970696
24.8398519999981,1.43201465201465
24.9063819999993,1.42798534798535
24.9655300000012,3.18959706959707
25.0362370000035,1.53274725274725
25.0768130000085,1.65846153846154
25.124825000003,2.23545787545788
25.1640659999996,1.39413919413919
25.2060810000002,1.32
25.2487360000014,1.33531135531136
25.298101000011,1.3425641025641
25.3540649999976,1.39575091575092
25.4032470000088,1.52952380952381
25.4415120000094,1.49084249084249
25.4820230000019,1.25875457875458
25.5200729999989,1.58593406593407
25.561577000007,1.85025641025641
25.6205420000106,1.97194139194139
25.6864549999982,1.29421245421245
25.7468650000095,1.3425641025641
25.8132220000029,1.35868131868132
25.8542840000093,1.40622710622711
25.9013830000013,1.44571428571429
25.944875,1.52871794871795
26.0664380000085,1.53838827838828
26.1882850000113,1.79868131868132
26.3648589999974,1.63589743589744
26.5004549999982,1.83252747252747
26.6179270000011,2.27333333333333
26.732976000011,1.33772893772894
26.8001060000062,1.34175824175824
26.8382230000049,1.34095238095238
26.8894120000005,1.3796336996337
26.9319280000031,1.44087912087912
26.9784409999996,1.49648351648352
27.054251000002,1.49245421245421
27.1069140000045,3.17589743589744
27.2030200000107,1.54322344322344
27.2539350000024,1.65604395604396
27.3044570000023,2.15003663003663
27.3576710000038,1.41509157509157
27.419476000011,1.31113553113553
27.4715690000057,1.30630036630037
27.5031130000055,1.34739926739927
27.5521810000092,1.40864468864469
27.6004580000043,1.46505494505495
27.6478340000063,1.52871794871795
27.6980059999973,1.48117216117216
27.7550420000106,1.56336996336996
27.8037929999977,1.60527472527473
27.8539240000099,1.9614652014652
27.8873620000035,1.68666666666667
27.9218660000116,1.3385347985348
27.9727480000108,1.34901098901099
28.0207140000016,1.35062271062271
28.0808180000037,1.41106227106227
28.1265579999983,1.49084249084249
28.1579960000068,1.54725274725275
28.202851000011,1.46344322344322
28.2377410000116,1.56981684981685
28.2822600000054,1.603663003663
28.3321030000001,1.92197802197802
28.3827080000043,1.65040293040293
28.4174910000116,1.25230769230769
28.4565320000052,1.28454212454212
28.5031930000037,1.3014652014652
28.5394680000097,1.35948717948718
28.5904220000058,1.40461538461538
28.6508640000075,1.45296703296703
28.7117730000019,3.22989010989011
28.7522929999977,1.59721611721612
28.801326000005,1.75838827838828
28.8380359999984,2.15406593406593
28.8816430000067,1.37238095238095
28.9483599999994,1.40139194139194
29.0261960000098,1.4021978021978
29.0684160000086,1.40300366300366
29.1032140000016,1.45538461538462
29.1394390000105,1.49003663003663
29.1745030000061,2.27897435897436
29.2126930000037,1.58593406593407
29.2492040000111,1.71003663003663
29.2835820000023,2.11135531135531
29.333900000006,1.57304029304029
29.3881169999987,1.41186813186813
29.4430130000114,1.3796336996337
29.4854880000055,1.36835164835165
29.5263519999981,1.41912087912088
29.5732480000108,1.54241758241758
29.6098020000011,1.49003663003663
29.6701450000107,1.36432234432234
29.7332129999995,1.80915750915751
29.7899580000043,2.10974358974359
29.8461700000018,2.14358974358974
29.9283070000112,1.53113553113553
29.9797700000107,1.44652014652015
30.0314409999996,1.39010989010989
30.0678140000105,1.35142857142857
30.1170520000011,1.39010989010989
30.1562330000103,1.39413919413919
30.1955850000083,1.96227106227106
30.2475139999986,1.4247619047619
30.2966089999974,1.57787545787546
30.3615320000052,1.95018315018315
30.4178040000051,1.16527472527473
30.4807569999993,1.2152380952381
30.5179450000077,1.22813186813187
30.5617349999994,1.29018315018315
30.6014530000091,1.41509157509157
30.6400910000056,1.41992673992674
30.6810310000032,1.2603663003663
30.716202000007,1.63347985347985
30.7702440000027,1.95018315018315
30.8271480000019,1.88249084249084
30.8877370000035,1.37157509157509
30.9376370000094,1.42798534798535
31.0032630000114,1.40300366300366
31.0643390000015,1.49809523809524
31.1290920000076,1.476336996337
31.1712870000005,1.21201465201465
31.2208120000064,1.57948717948718
31.2638299999982,1.83575091575092
31.3077620000094,1.8792673992674
31.3510729999989,1.28373626373626
31.3822049999982,1.31355311355311
31.4150450000018,1.31113553113553
31.4425700000077,1.44168498168498
31.4782990000099,1.45377289377289
31.516125,2.18952380952381
31.5499290000051,1.55934065934066
31.6014950000048,1.75516483516484
31.6543110000044,2.136336996337
31.7124280000031,1.32322344322344
31.7605520000011,1.3981684981685
31.8198710000068,1.37479853479853
31.8716640000045,1.44490842490842
31.9082190000117,1.44007326007326
31.9438720000088,3.19362637362637
31.9904730000049,1.51260073260073
32.0260949999988,1.65201465201465
32.0634150000066,2.18468864468864
32.1027240000069,1.34417582417582
32.1421780000031,1.32
32.1975860000104,1.31838827838828
32.2412370000035,1.35062271062271
32.2932859999985,1.42234432234432
32.3563420000076,1.45538461538462
32.4498290000111,2.37728937728938
32.5209670000076,1.51340659340659
32.6184430000037,1.62300366300366
32.7242199999988,2.10490842490842
32.7765330000073,1.47150183150183
32.8217620000094,1.36754578754579
32.8656660000086,1.35787545787546
32.9122330000103,1.36351648351648
33.0081220000088,1.42153846153846
33.0873990000039,1.4803663003663
33.1615780000091,1.48197802197802
33.2339680000097,2.63516483516484
33.322275000006,1.51179487179487
33.4161450000107,1.61978021978022
33.5056810000092,2.07428571428571
33.6023880000114,1.40945054945055
33.6968870000094,1.25069597069597
33.7677040000111,1.27567765567766
33.8490700000077,1.28615384615385
33.9184800000042,1.40542124542125
33.9941019999981,1.41347985347985
34.0658620000035,3.19362637362637
34.1227540000081,1.56498168498168
34.1639409999996,1.74871794871795
34.2075390000045,2.27655677655678
34.2706420000046,1.41509157509157
34.3087180000097,1.35142857142857
34.3921529999971,1.32967032967033
34.4431970000118,1.35868131868132
34.5149350000024,1.50776556776557
34.5995579999983,1.44007326007326
34.665200000003,1.07824175824176
34.7598900000006,1.52307692307692
34.8692920000106,1.78981684981685
35.0067680000067,2.01868131868132
35.1452970000058,1.28212454212454
35.2007920000106,1.33531135531136
35.2406600000113,1.37479853479853
35.2959380000085,1.41589743589744
35.3537950000018,1.51582417582418
35.4088420000076,1.50776556776557
35.4856080000103,1.36029304029304
35.5659170000106,1.59238095238095
35.6458870000094,1.79062271062271
35.7241200000048,2.15164835164835
35.802998999998,1.31435897435897
35.8820370000005,1.31355311355311
35.9756060000062,1.3385347985348
36.0535429999977,1.37641025641026
36.1304409999996,1.43523809523809
36.2107380000055,1.47150183150183
36.2899530000091,2.05413919413919
36.3709800000042,1.5359706959707
36.4511790000051,1.63992673992674
36.5295540000051,2.0581684981685
36.6077690000087,1.50857142857143
36.7019970000088,1.35626373626374
36.7788310000002,1.37479853479853
36.8579170000106,1.35062271062271
36.9364080000073,1.42315018315018
37.0144210000038,1.50454212454212
37.0940550000072,1.49970695970696
37.1735690000057,1.95260073260073
37.2684690000117,1.53032967032967
37.3486330000013,1.6221978021978
37.4281340000033,2.0025641025641
37.5076380000114,1.51179487179487
37.5870059999973,1.35384615384615
37.6641060000062,1.31838827838828
37.7413620000035,1.36835164835165
37.8211280000061,1.39978021978022
37.9145690000057,1.45377289377289
37.9943290000111,1.4618315018315
38.0718770000041,3.19282051282051
38.1494130000025,1.53435897435897
38.2270630000085,1.71003663003663
38.3179660000056,2.14197802197802
38.397701000005,1.40703296703297
38.4767639999986,1.32483516483516
38.5554790000021,1.34578754578755
38.6327140000015,1.34659340659341
38.7281400000006,1.45135531135531
38.8073310000002,1.42879120879121
38.8846790000051,1.18461538461538
38.9646280000061,1.52871794871795
39.0457390000075,1.83252747252747
39.1256590000093,1.78498168498169
39.2050120000094,1.2603663003663
39.2835720000118,1.34739926739927
39.3625240000039,1.34417582417582
39.4420370000005,1.43765567765568
39.5215279999971,1.45296703296703
39.6171740000099,2.54974358974359
39.6968800000101,1.56820512820513
39.7739720000029,1.75838827838828
39.8528360000104,2.10007326007326
39.9304320000112,1.30710622710623
40.0211150000095,1.35062271062271
40.0994600000083,1.35062271062271
40.1780840000063,1.41347985347985
40.2575139999986,1.50051282051282
40.3355230000019,1.53758241758242
40.4136750000119,1.51663003663004
40.5075370000005,1.61172161172161
40.5872840000093,1.9985347985348
40.6656480000019,1.54322344322344
40.7455470000058,1.30468864468864
40.823998999998,1.33611721611722
40.9026720000058,1.35626373626374
40.9826300000101,1.42556776556777
41.0761019999981,1.42556776556777
41.1551800000071,3.19040293040293
41.235050999999,1.51985347985348
41.3139570000023,1.62461538461538
41.3946580000073,2.12747252747253
41.4715090000033,1.32564102564103
41.5518040000051,1.33772893772894
41.6316529999971,1.3570695970696
41.7135610000044,1.40058608058608
41.7893470000029,1.47794871794872
41.8844360000044,1.50615384615385
41.9652470000088,1.66249084249084
42.0450590000004,1.53838827838828
42.1218519999981,1.63509157509158
42.2005879999995,2.03238095238095
42.2822290000021,1.55692307692308
42.3586570000052,1.35948717948718
42.4372850000113,1.36996336996337
42.5322440000027,1.37318681318681
42.6099080000073,1.41831501831502
42.6880080000013,1.49245421245421
42.767101000011,1.49245421245421
42.8468050000072,3.19040293040293
42.9258440000117,1.59882783882784
43.0053950000107,1.71487179487179
43.0995920000076,2.17340659340659
43.1789530000091,1.42637362637363
43.2695550000072,1.38285714285714
43.3367700000107,1.35304029304029
43.4164130000025,1.4021978021978
43.4949029999971,1.42637362637363
43.5736400000006,1.46505494505495
43.6542880000025,1.51663003663004
43.7472070000023,1.59399267399267
43.8276340000033,1.56901098901099
43.9070649999976,1.63267399267399
43.9846600000113,1.93728937728938
44.0668220000118,1.54805860805861
44.1426899999976,1.31919413919414
44.2215860000104,1.34095238095238
44.3000240000039,1.3570695970696
44.3952119999975,1.42959706959707
44.4737049999982,1.46424908424908
44.5530470000058,1.55208791208791
44.6330700000077,1.54241758241758
44.7128480000049,1.81721611721612
44.7919100000113,1.62380952380952
44.8722960000038,1.74871794871795
44.9521150000095,2.0952380952381
45.0300279999971,1.32483516483516
45.1236150000095,1.33772893772894
45.2026099999994,1.32644688644689
45.2818560000062,1.36673992673993
45.3596720000058,1.45860805860806
45.440577000007,1.51663003663004
45.51990200001,1.56820512820513
45.5997110000104,1.61413919413919
45.6779590000063,1.59479853479853
45.7716810000092,1.65120879120879
45.8499479999989,1.916336996337
45.9285520000011,1.58673992673993
46.0075710000098,1.34578754578755
46.0881430000067,1.36190476190476
46.1675729999989,1.39091575091575
46.2465320000052,1.45699633699634
46.325748999998,1.5029304029304
46.4053290000111,1.60608058608059
46.48552700001,1.55047619047619
46.5806410000026,1.23296703296703
46.6590059999973,1.62300366300366
46.7392160000056,1.79545787545788
46.8197150000036,1.91472527472527
46.898251000002,1.34336996336996
46.9773170000017,1.35545787545788
47.0540429999977,1.36432234432234
47.1477800000012,1.38849816849817
47.2289170000106,1.45216117216117
47.3073229999989,1.49567765567766
47.3865810000002,1.51663003663004
47.4652840000093,1.27487179487179
47.542701000005,1.89538461538462
47.6207370000035,2.12747252747253
47.7140890000016,2.36681318681319
47.791827000007,1.67054945054945
47.8684800000042,1.57062271062271
47.9481800000072,1.44652014652015
48.0264570000023,1.42153846153846
48.1188550000042,1.41992673992674
48.1962960000038,1.43282051282051
48.2738900000006,1.40864468864469
48.3527370000035,3.01875457875458
48.4307910000086,1.46021978021978
48.5091389999986,1.5996336996337
48.6038330000043,1.90505494505494
48.6828870000094,1.28051282051282
48.7583360000104,1.31032967032967
48.8366790000051,1.31758241758242
48.9294150000066,1.3651282051282
49.0086030000001,1.43282051282051
49.0858780000061,1.47150183150183
49.1642170000076,1.50373626373626
49.2441140000075,2.81567765567766
49.3241169999987,1.57948717948718
49.4039790000021,1.71406593406593
49.482650000006,2.00014652014652
49.5773310000002,1.36835164835165
49.6566019999981,1.38124542124542
49.7366360000074,1.37076923076923
49.8161899999976,1.42153846153846
49.8963840000033,1.46021978021978
49.9758800000101,1.53838827838828
50.0538430000097,1.50212454212454
50.1330130000114,1.27326007326007
50.2111440000087,1.62058608058608
50.2908700000048,1.84300366300366
50.3843079999983,1.87282051282051
50.4629780000001,1.34981684981685
50.5436330000013,1.37802197802198
50.625101000011,1.35545787545788
50.7049800000042,1.41992673992674
50.7840780000091,1.41589743589744
50.8630620000064,3.18395604395604
50.9425310000032,1.4989010989011
51.0225370000005,1.69472527472527
51.1025649999976,2.01465201465201
51.1993379999995,1.31355311355311
51.275324000001,1.31919413919414
51.3508560000062,1.34095238095238
51.4285960000008,1.40542124542125
51.5089060000032,1.42798534798535
51.5890390000045,3.20087912087912
51.6684660000056,1.5440293040293
51.7649710000008,1.71809523809524
51.8434140000045,2.1032967032967
51.9225100000054,1.34739926739927
52.002876000002,1.37157509157509
52.0823130000085,1.41347985347985
52.1634860000014,1.44410256410256
52.2418630000055,1.43201465201465
52.3223920000046,3.1952380952381
52.399623999998,1.53113553113553
52.4792269999981,1.73098901098901
52.5585150000006,2.19677655677656
52.6528980000019,1.32725274725275
52.7312650000006,1.38124542124542
52.8094600000083,1.39252747252747
52.8889919999987,1.41428571428571
52.9694450000077,1.4618315018315
53.04890200001,2.44739926739927
53.1295910000056,1.5214652014652
53.2099320000112,1.60124542124542
53.3016300000101,2.06783882783883
53.3789680000097,1.38124542124542
53.4579230000079,1.32161172161172
53.5373700000048,1.32725274725275
53.6159970000088,1.3756043956044
53.6970949999988,1.43443223443223
53.7748500000089,1.47150183150183
53.8550350000113,1.79223443223443
53.9350700000077,1.50857142857143
54.01552700001,1.63347985347985
54.1108930000067,2.03721611721612
54.1887719999999,1.50454212454212
54.2670350000113,1.33772893772894
54.3470540000051,1.34498168498168
54.4251350000054,1.35545787545788
54.5035130000114,1.40300366300366
54.5834029999971,1.51582417582418
54.6631230000108,1.47391941391941
54.7579039999992,1.22490842490842
54.8360810000002,1.58673992673993
54.9149780000001,1.87765567765568
54.9936829999983,2.0025641025641
55.0719600000083,1.3385347985348
55.151900000006,1.3796336996337
55.2304220000058,1.3425641025641
55.3219940000027,1.38527472527473
55.3999680000097,1.40300366300366
55.4783320000023,3.18959706959707
55.5583630000055,1.46747252747253
55.6382190000117,1.64717948717949
55.7176580000073,2.10732600732601
55.8122140000015,1.34336996336996
55.8916110000014,1.3159706959707
55.9718220000118,1.35384615384615
56.0518320000023,1.39091575091575
56.1289870000035,1.49326007326007
56.2083770000041,1.49728937728938
56.288949000001,1.1781684981685
56.3691679999977,1.60688644688645
56.4477660000026,1.8421978021978
56.5281979999989,2.01948717948718
56.6088669999987,1.30468864468864
56.6884780000001,1.34498168498168
56.7678140000105,1.34578754578755
56.8621790000051,1.40864468864469
56.9419860000014,1.52307692307692
57.0217850000113,1.49245421245421
57.0982380000055,1.2232967032967
57.1771190000027,1.58593406593407
57.2551030000001,1.76967032967033
57.3348669999987,2.04527472527473
57.4296300000101,1.2603663003663
57.5033540000021,1.30227106227106
57.5844680000097,1.33128205128205
57.6613990000039,1.3981684981685
57.7534109999985,1.44893772893773
57.8321630000025,1.53677655677656
57.9126140000075,1.45377289377289
57.9907600000054,1.58432234432234
58.0689570000023,1.60849816849817
58.1480200000107,1.95421245421245
58.228202000007,1.68586080586081
58.3053830000013,1.30388278388278
58.4023519999981,1.34417582417582
58.4839750000089,1.34578754578755
58.5623480000049,1.39413919413919
58.6427719999999,1.45941391941392
58.7217250000089,1.52871794871795
58.8016730000079,1.53919413919414
58.8884780000001,3.12996336996337
58.9599130000025,1.64717948717949
59.0394730000049,1.85912087912088
59.1193040000051,2.28622710622711
59.1994839999974,1.43120879120879
59.2800869999975,1.39413919413919
59.3600410000086,1.34739926739927
59.4563460000008,1.37157509157509
59.5346550000012,1.4207326007326
59.6140069999993,1.46827838827839
59.6948030000031,1.46021978021978
59.7742650000006,2.93494505494505
59.8526070000082,1.48278388278388
59.932701000005,1.58915750915751
