Tiempo_s,Valor
0.0170060000009835,1.48842490842491
2.94677500000224,1.46021978021978
2.99967600000277,1.35223443223443
3.04298500000313,1.85831501831502
3.07713100000098,2.12021978021978
3.11021000000089,2.01304029304029
3.14271100000292,1.17010989010989
3.18202600000054,1.30307692307692
3.21748800000176,1.34498168498168
3.24878100000322,1.4167032967033
3.28912299999967,1.5810989010989
3.32192000000179,1.48681318681319
3.35659900000319,1.39655677655678
3.38604300000146,1.56175824175824
3.41491800000146,1.83897435897436
3.4483590000011,1.93164835164835
3.47712900000066,1.32967032967033
3.50502300000191,1.47391941391941
3.54098600000143,1.41992673992674
3.57710300000012,1.44732600732601
3.61893900000304,1.37882783882784
3.65390300000086,1.96468864468864
3.68985600000247,1.32161172161172
3.7274290000014,1.4578021978022
3.77837800000235,2.00175824175824
3.81909500000253,1.30871794871795
3.86627000000328,1.31677655677656
3.90637200000137,1.3796336996337
3.94294099999964,1.41025641025641
3.97867500000075,1.49003663003663
4.01659500000253,1.47714285714286
4.06154700000212,2.33377289377289
4.09779200000316,1.61494505494505
4.12659600000083,1.92358974358974
4.15860400000215,2.30556776556777
4.1908740000017,1.38446886446886
4.24312299999967,1.41186813186813
4.30134500000253,1.41912087912088
4.34852900000289,1.41589743589744
4.39108800000325,1.45860805860806
4.43648000000045,1.90989010989011
4.48922500000149,1.46989010989011
4.5324130000025,1.57787545787546
4.57204100000113,2.09684981684982
4.60869600000232,1.27326007326007
4.64026300000027,1.14190476190476
4.67972900000215,1.21282051282051
4.71839699999988,1.26600732600733
4.7499830000028,1.41186813186813
4.78115200000256,1.39494505494505
4.80832100000232,1.30227106227106
4.83899400000274,1.50534798534799
4.86705200000107,1.80029304029304
4.89654000000283,2.15003663003663
4.92290900000185,1.35626373626374
4.94975200000033,1.41267399267399
4.97937299999967,1.40703296703297
5.00674400000274,1.51179487179487
5.03687200000137,1.65362637362637
5.06905000000075,1.58673992673993
5.09785600000247,2.93010989010989
5.12583900000155,1.55208791208791
5.1561630000025,1.76725274725275
5.18352500000224,2.18952380952381
5.21173800000176,1.27648351648352
5.2428049999997,1.31919413919414
5.27214400000125,1.32725274725275
5.30108500000089,1.38527472527473
5.32798600000143,1.42556776556777
5.35454800000042,1.55047619047619
5.38521700000018,1.40461538461538
5.41178500000015,1.32
5.43754900000244,1.44490842490842
5.47094000000134,1.74065934065934
5.50123800000176,2.05172161172161
5.53265200000256,1.33289377289377
5.61610000000149,1.3796336996337
5.69603700000048,1.39252747252747
5.76887900000066,1.42798534798535
5.84926099999994,1.49567765567766
5.93613599999994,1.53919413919414
6.01588900000229,1.51824175824176
6.10544299999997,3.19201465201465
6.17793400000036,1.6447619047619
6.257569000002,1.76805860805861
6.33806400000304,2.26285714285714
6.41763500000164,1.35223443223443
6.50532899999991,1.31919413919414
6.57783000000194,1.32725274725275
6.65759800000116,1.35142857142857
6.7379130000025,1.40300366300366
6.83440000000224,1.50857142857143
6.91464900000021,1.45296703296703
6.99489200000092,2.63113553113553
7.06752800000086,1.52630036630037
7.14819900000095,1.74468864468864
7.2359130000025,2.22417582417582
7.30796100000292,1.27406593406593
7.38863700000197,1.28695970695971
7.47691600000113,1.31194139194139
7.54952500000224,1.35626373626374
7.63319800000265,1.41912087912088
7.71292500000075,1.46747252747253
7.80164600000158,1.49728937728938
7.88189400000125,3.18637362637363
7.95372300000116,1.50373626373626
8.04265799999982,1.70923076923077
8.12214500000328,2.32490842490843
8.20217600000277,1.39655677655678
8.28234400000051,1.41106227106227
8.36268500000238,1.38769230769231
8.44325700000301,1.38930402930403
8.52233400000259,1.41831501831502
8.60309500000253,1.46263736263736
8.68257899999991,1.56739926739927
8.76242700000107,1.5029304029304
8.85232700000331,1.38043956043956
8.94010300000012,1.51179487179487
9.01213300000131,1.80673992673993
9.10072599999979,1.99611721611722
9.18072500000149,1.20879120879121
9.26211100000143,1.30710622710623
9.33317100000009,1.32161172161172
9.42169600000232,1.38688644688645
9.49347599999979,1.46424908424908
9.58063800000027,1.5585347985348
9.65670200000331,1.51018315018315
9.74439800000191,1.43765567765568
9.82633999999985,1.58029304029304
9.90549799999967,1.95421245421245
9.98539600000158,1.73663003663004
10.0681190000027,1.37721611721612
10.1482200000025,1.46989010989011
10.2285150000006,1.4618315018315
10.3159180000015,1.4843956043956
10.3886290000007,1.50212454212454
10.4683580000028,1.59238095238095
10.5561480000019,1.53113553113553
10.6367980000004,1.45054945054945
10.7086600000001,1.53435897435897
10.7969470000006,1.78417582417582
10.8697039999999,2.10974358974359
10.9569110000022,1.27648351648352
11.0298440000005,1.30307692307692
11.1258270000033,1.26761904761905
11.2049150000028,1.32483516483516
11.2779530000016,1.4021978021978
11.3568570000008,1.45377289377289
11.4447330000028,1.4803663003663
11.5167990000024,2.55054945054945
11.5964100000001,1.51501831501831
11.6918540000021,1.64798534798535
11.771682,2.1443956043956
11.8507230000012,1.42234432234432
11.9301080000028,1.34739926739927
12.0100970000029,1.3796336996337
12.0895549999997,1.47391941391941
12.1694079999998,1.5440293040293
12.2492479999997,1.59076923076923
12.3294610000029,1.55289377289377
12.409324000001,3.1952380952381
12.4877010000013,1.51904761904762
12.5830970000029,1.68424908424908
12.6617460000031,2.2225641025641
12.7404260000028,1.23860805860806
12.8184539999999,1.26600732600733
12.8972910000011,1.33611721611722
12.9773500000015,1.35384615384615
13.0576720000021,1.35868131868132
13.1360810000002,1.3651282051282
13.2167870000005,1.43523809523809
13.3118100000024,1.40864468864469
13.3897860000022,1.53677655677656
13.4699050000012,2.03399267399267
13.5483289999999,1.46827838827839
13.6261070000008,1.3240293040293
13.713012000002,1.383663003663
13.7857820000015,1.41992673992674
13.8737420000024,1.47311355311355
13.945444000002,1.5359706959707
14.0270910000019,1.55208791208791
14.1164570000023,3.18798534798535
14.1879270000011,1.66087912087912
14.2767460000031,1.78336996336996
14.3648600000031,2.29428571428571
14.4470310000032,1.36915750915751
14.5163839999996,1.34578754578755
14.6045340000018,1.35142857142857
14.6776020000018,1.36754578754579
14.7647760000005,1.39575091575092
14.8555390000008,1.49406593406593
14.9187760000005,1.39978021978022
14.9968729999997,1.38527472527473
15.0795329999998,1.4392673992674
15.1665860000029,1.7640293040293
15.2473110000007,1.95179487179487
15.3289240000024,1.18380952380952
15.4068509999998,1.3014652014652
15.4873610000014,1.34336996336996
15.5666140000001,1.39494505494505
15.6502090000026,1.48842490842491
15.7336650000028,1.51824175824176
15.8209800000004,2.64886446886447
15.8994720000029,1.50131868131868
15.9771740000024,1.65040293040293
16.0555710000023,2.2410989010989
16.1356040000021,1.48761904761905
16.2154260000028,1.44168498168498
16.2942740000002,1.43282051282051
16.3890270000026,1.47150183150183
16.4850920000002,1.48197802197802
16.5507750000022,1.48520146520147
16.6216540000029,1.46102564102564
16.7016650000028,1.41912087912088
16.7783729999997,1.44410256410256
16.871012000002,1.61091575091575
16.9516579999998,1.97516483516483
17.028194000002,1.56095238095238
17.1075080000013,1.14835164835165
17.1851710000001,1.24102564102564
17.2797800000012,1.2603663003663
17.3604860000014,1.34739926739927
17.4367910000011,1.41912087912088
17.5152750000022,1.51663003663004
17.5948850000016,1.51904761904762
17.6743300000019,3.20087912087912
17.7539700000025,1.53516483516484
17.8466660000011,1.68747252747253
17.9268680000007,2.22981684981685
18.0046620000005,1.36754578754579
18.0832860000022,1.46747252747253
18.1627160000019,1.49164835164835
18.2448670000024,1.5029304029304
18.3208770000003,1.51260073260073
18.3996160000004,1.51501831501831
18.493689000003,1.55289377289377
18.5702050000019,1.53274725274725
18.6507850000001,3.19443223443223
18.7296119999997,1.47714285714286
18.8083110000007,1.64315018315018
18.8875329999998,2.13875457875458
18.9665439999998,1.24827838827839
19.0599570000023,1.23216117216117
19.1376750000007,1.27728937728938
19.2182020000033,1.31838827838828
19.2970710000023,1.44813186813187
19.3776469999999,1.49648351648352
19.4528430000022,1.54725274725275
19.5468790000007,1.57868131868132
19.6191150000021,1.48681318681319
19.6980100000016,1.61010989010989
19.7787300000004,1.8647619047619
19.8565340000018,2.0170695970696
19.9515219999999,1.36996336996337
20.0322600000016,1.40622710622711
20.1122990000024,1.52307692307692
20.1905170000009,1.57626373626374
20.2703049999997,1.57142857142857
20.3484000000022,1.5770695970696
20.4290590000004,1.53516483516484
20.50925,3.19604395604396
20.5855390000008,1.49003663003663
20.6809050000012,1.65201465201465
20.7598720000014,2.15809523809524
20.8371460000016,1.21282051282051
20.9151440000013,1.24747252747253
20.9935470000021,1.29663003663004
21.0698020000011,1.25553113553114
21.1624660000019,1.29179487179487
21.2409880000018,1.33450549450549
21.3185610000007,1.64717948717949
21.3966730000004,1.44813186813187
21.4748060000017,1.57868131868132
21.5681680000015,2.08395604395604
21.6482230000012,1.4618315018315
21.7280310000032,1.25714285714286
21.8052690000013,1.34578754578755
21.8857930000015,1.36673992673993
21.9635990000032,1.47794871794872
22.0434070000015,1.54725274725275
22.1249860000014,3.20007326007326
22.2183790000007,1.69069597069597
22.2985230000019,1.81238095238095
22.3789510000013,2.32732600732601
22.4566190000027,1.32805860805861
22.5365760000013,1.37641025641026
22.6154200000018,1.35948717948718
22.6944750000015,1.38124542124542
22.7735160000026,1.47875457875458
22.8539510000013,1.46344322344322
22.9469330000021,3.18556776556777
23.026949000001,1.46263736263736
23.1043740000017,1.51824175824176
23.1834220000021,2.10168498168498
23.2615920000002,1.22007326007326
23.3382420000024,1.2643956043956
23.4173740000017,1.29340659340659
23.5126660000011,1.35787545787546
23.5912829999998,1.43604395604396
23.6699900000021,1.57062271062271
23.7476740000024,1.53355311355311
23.8280439999998,1.57062271062271
23.907313000001,1.5359706959707
23.9835080000013,1.76241758241758
24.0798920000009,2.22981684981685
24.159632000003,1.41186813186813
24.2389200000018,1.42798534798535
24.3173450000025,1.4392673992674
24.3961579999998,1.43040293040293
24.4742160000019,1.43846153846154
24.5521210000031,1.49728937728938
24.6453220000006,1.50373626373626
24.7223920000009,2.02754578754579
24.8012210000008,1.57545787545788
24.879063000001,1.7003663003663
24.9596060000025,2.14520146520147
25.0369790000021,1.46102564102564
25.1328920000009,1.24424908424908
25.2111860000007,1.27164835164835
25.2892870000005,1.27970695970696
25.3676860000007,1.35142857142857
25.4475720000006,1.41509157509157
25.5283450000025,1.49487179487179
25.6088800000027,1.48117216117216
25.6960150000006,3.19282051282051
25.7689610000029,1.53032967032967
25.8482910000011,1.68908424908425
25.9287170000002,2.27978021978022
26.0096359999999,1.32322344322344
26.0963630000018,1.43443223443223
26.1766520000026,1.47472527472527
26.2645,1.48197802197802
26.3365320000015,1.51582417582418
26.4169979999997,1.54564102564103
26.5052430000007,1.57787545787546
26.5860460000001,1.54644688644689
26.6580980000012,3.05582417582418
26.7537259999998,1.50212454212454
26.8275590000004,1.58835164835165
26.9073490000032,2.10168498168498
26.9951150000021,1.33531135531136
27.065813000001,1.23135531135531
27.146393000003,1.21362637362637
27.2333969999999,1.25472527472527
27.3157350000031,1.32483516483516
27.3873399999999,1.41831501831502
27.4731660000011,1.50937728937729
27.561069000002,1.51582417582418
27.6414470000006,2.7447619047619
27.7202080000006,1.52307692307692
27.800001000002,1.65040293040293
27.8775850000009,2.14761904761905
27.957068,1.43282051282051
28.0340439999998,1.35948717948718
28.1139240000024,1.48681318681319
28.2097020000033,1.50695970695971
28.287382000003,1.53516483516484
28.3665200000033,1.55369963369963
28.4452939999998,1.60849816849817
28.5259520000033,1.53032967032967
28.6044270000011,1.30307692307692
28.6846760000028,1.57142857142857
28.7622350000031,1.86153846153846
28.8423660000004,2.15809523809524
28.937512000002,1.26358974358974
29.0149600000009,1.33047619047619
29.0934079999998,1.29501831501831
29.1738410000019,1.23860805860806
29.2508470000029,1.32241758241758
29.3305270000026,1.45135531135531
29.4090020000003,1.48197802197802
29.5017550000027,3.18959706959707
29.5791780000031,1.47553113553114
29.6639530000016,1.64798534798535
29.7368100000024,2.3418315018315
29.8264340000004,1.3014652014652
29.8970160000026,1.34498168498168
29.9851080000028,1.35223443223443
30.0626689999998,1.41267399267399
30.1423560000025,1.50776556776557
30.230506000001,1.6552380952381
30.3096689999998,1.61010989010989
30.3894120000005,2.95750915750916
30.470314000003,1.51904761904762
30.5501640000008,1.72534798534799
30.6301110000014,2.32813186813187
30.709819000002,1.3610989010989
30.7984480000027,1.41106227106227
30.8787719999999,1.37882783882784
30.959193,1.33692307692308
31.0313610000014,1.49567765567766
31.112807,1.33934065934066
31.1912800000012,1.40783882783883
31.2796550000012,1.40622710622711
31.3602490000017,1.47230769230769
31.4398049999997,1.58996336996337
31.5194630000032,2.09684981684982
31.6074330000021,1.70681318681319
31.6868680000007,1.20798534798535
31.7641660000011,1.27970695970696
31.8441950000003,1.31516483516484
31.9221480000019,1.36754578754579
32.0000930000022,1.43362637362637
32.0945600000024,1.53194139194139
32.1739180000015,1.92600732600733
32.2536530000009,1.6221978021978
32.3326870000027,1.81399267399267
32.4126469999999,2.25399267399267
32.4906500000022,1.30791208791209
32.5689510000013,1.35948717948718
32.6491780000031,1.36673992673993
32.7442060000002,1.44007326007326
32.8220480000004,1.47794871794872
32.9009299999997,1.57868131868132
32.9815520000011,1.48520146520147
33.0605030000024,1.45538461538462
33.1359720000029,1.51501831501831
33.2156700000018,1.82043956043956
33.3082690000013,1.63589743589744
33.3863940000013,1.36271062271062
33.4637200000025,1.27406593406593
33.5428680000007,1.46344322344322
33.634313000001,1.51179487179487
33.7075720000006,1.5625641025641
33.7917880000025,1.56498168498168
33.8783670000024,3.19443223443223
33.9670659999996,1.52388278388278
34.0394150000028,1.65684981684982
34.1104290000014,2.16937728937729
34.1992930000015,1.41509157509157
34.2784990000017,1.38205128205128
34.3507870000005,1.39575091575092
34.4306210000031,1.38849816849817
34.5110610000007,1.42153846153846
34.5985760000013,1.52468864468864
34.6790789999999,1.49164835164835
34.7677250000015,1.32080586080586
34.8442670000009,1.50051282051282
34.9298480000012,1.82124542124542
35.003693,1.85428571428571
35.0769850000031,1.20153846153846
35.1647580000013,1.22974358974359
35.2449030000009,1.26761904761905
35.3330490000024,1.33772893772894
35.4131909999996,1.40945054945055
35.4934140000008,1.42153846153846
35.5650210000016,1.47472527472527
35.6580310000032,1.56659340659341
35.7354590000026,2.00417582417582
35.8158969999999,1.56336996336996
35.8938710000031,1.31516483516484
35.9698590000011,1.38446886446886
36.061637000002,1.44490842490842
36.1422520000003,1.5585347985348
36.2210190000012,1.6778021978022
36.2994079999998,1.57626373626374
36.3782589999996,1.53194139194139
36.4562330000028,1.5585347985348
36.5497589999996,1.88974358974359
36.6280720000006,1.70681318681319
36.7052520000003,1.26197802197802
36.7844280000031,1.30065934065934
36.8610480000004,1.34820512820513
36.9525770000033,1.38930402930403
37.0326689999998,1.44168498168498
37.1090300000012,1.35384615384615
37.1853170000017,2.00901098901099
37.2647820000015,1.38608058608059
37.3449880000018,1.54805860805861
37.4386350000016,2.0807326007326
37.5186860000007,1.39655677655678
37.5952010000013,1.29582417582418
37.6762730000019,1.3610989010989
37.7544330000021,1.40380952380952
37.8334960000031,1.45135531135531
37.9140350000001,1.5359706959707
37.9932970000021,1.61736263736264
38.0874260000028,1.61333333333333
38.1672870000005,1.70358974358974
38.2449600000009,2.12827838827839
38.3256490000002,1.5359706959707
38.4040800000019,1.33450549450549
38.4838410000019,1.35304029304029
38.5614570000023,1.39010989010989
38.6417100000009,1.43765567765568
38.7212609999999,1.46505494505495
38.814751000002,1.56095238095238
38.8953920000009,1.48761904761905
38.9753520000018,1.5440293040293
39.0547020000033,1.53194139194139
39.1346469999999,1.76805860805861
39.2126339999996,1.4803663003663
39.2930650000013,1.23135531135531
39.3737130000032,1.29582417582418
39.4527479999997,1.35304029304029
39.5311160000004,1.4207326007326
39.6242039999999,1.50776556776557
39.7029240000024,1.60205128205128
39.7817960000001,1.56820512820513
39.8613460000008,3.19201465201465
39.9426170000024,1.5029304029304
40.0202670000009,1.73421245421245
40.0999620000012,2.38212454212454
40.1796090000011,1.34901098901099
40.2732090000026,1.40864468864469
40.3484830000028,1.44571428571429
40.4276140000001,1.43120879120879
40.5073690000027,1.45699633699634
40.5871450000033,1.53516483516484
40.6650760000013,1.39575091575092
40.7458150000013,1.49970695970696
40.8392910000011,1.5625641025641
40.9188049999997,2.10652014652015
40.9981550000012,1.66249084249084
41.0768880000003,1.15641025641026
41.1546420000009,1.12981684981685
41.2318020000011,1.19186813186813
41.3245600000024,1.33208791208791
41.4032060000002,1.4247619047619
41.4794800000004,1.50373626373626
41.5587479999997,1.53758241758242
41.6358500000015,3.22344322344322
41.7288980000019,1.49326007326007
41.8061270000003,1.66168498168498
41.8860720000006,2.32087912087912
41.9651330000013,1.39897435897436
42.041443,1.45377289377289
42.1212050000019,1.51824175824176
42.2157360000014,1.52871794871795
42.2943640000001,1.59076923076923
42.3728540000021,1.62139194139194
42.452012000002,1.46989010989011
42.5334880000018,1.5956043956044
42.6124790000021,1.65201465201465
42.6927149999999,2.02835164835165
42.7727650000006,1.61575091575092
42.8516480000019,1.26358974358974
42.9306510000005,1.3014652014652
43.0259690000005,1.30065934065934
43.104807,1.25472527472527
43.1808680000007,1.29985347985348
43.2610030000024,1.35948717948718
43.3407970000021,3.1847619047619
43.4200160000026,1.45699633699634
43.4985610000007,1.63750915750916
43.5921670000032,2.14600732600733
43.6731640000008,1.38043956043956
43.7503080000021,1.35787545787546
43.8301970000006,1.36915750915751
43.9079690000005,1.39413919413919
43.9834610000029,1.45699633699634
44.078564000003,1.55531135531136
44.1555390000008,1.62864468864469
44.2337490000017,3.21457875457875
44.3134200000018,1.64234432234432
44.393443,1.7559706959707
44.4731060000025,2.19677655677656
44.5538030000031,1.35787545787546
44.6329979999997,1.35062271062271
44.7268100000024,1.34417582417582
44.806518000003,1.35465201465201
44.8818520000018,1.39252747252747
44.9610280000009,1.46021978021978
45.0379090000018,1.45619047619048
45.119,3.19201465201465
45.2112380000018,1.40864468864469
45.288745000001,1.60849816849817
45.3690520000011,2.11135531135531
45.4501480000019,1.31838827838828
45.5289060000032,1.33611721611722
45.6086160000004,1.35384615384615
45.6886540000029,1.3796336996337
45.7678200000003,1.45860805860806
45.8461560000032,1.54483516483516
45.9427380000018,1.53194139194139
46.021444000002,1.53355311355311
46.099069000002,1.66652014652015
46.1769290000014,2.09201465201465
46.2562640000023,1.76564102564103
46.3351490000002,1.3159706959707
46.4143920000009,1.34578754578755
46.5096420000009,1.32564102564103
46.5879230000004,1.38930402930403
46.668182,1.39897435897436
46.7453610000014,3.19684981684982
46.8230270000026,1.39413919413919
46.9031870000027,1.61172161172161
46.9802820000015,2.1959706959707
47.0597530000024,1.23135531135531
47.1562180000022,1.21604395604396
47.2352100000009,1.27970695970696
47.3134030000009,1.32
47.3932660000026,1.46021978021978
47.4736550000012,1.44087912087912
47.5532960000001,1.3756043956044
47.6316770000011,1.56739926739927
47.7201170000024,1.96791208791209
47.8015700000003,1.76241758241758
47.8799700000025,1.22974358974359
47.9608120000027,1.29582417582418
48.0316630000025,1.36754578754579
48.1120439999998,1.5214652014652
48.2005140000023,1.54483516483516
48.288001000002,1.51824175824176
48.3678690000027,1.64717948717949
48.4478650000021,2.06300366300366
48.5284960000031,1.61736263736264
48.6081680000015,1.3425641025641
48.6898340000026,1.39897435897436
48.7683570000008,1.39494505494505
48.8495420000032,1.44974358974359
48.9293230000027,1.55128205128205
49.0086630000025,1.50212454212454
49.0984370000027,1.13223443223443
49.1784560000002,1.45054945054945
49.2500230000019,1.70842490842491
49.3300200000033,2.00175824175824
49.4107780000009,1.26842490842491
49.4983900000006,1.31516483516484
49.569875,1.34417582417582
49.6659740000032,1.40783882783883
49.7454030000009,1.4618315018315
49.8242930000015,1.56820512820513
49.9026640000008,1.55611721611722
49.9817460000031,1.41992673992674
50.0611190000027,1.59157509157509
50.1388920000009,1.94051282051282
50.2182259999998,2.03399267399267
50.3123780000024,1.36190476190476
50.3926330000013,1.36673992673993
50.4687850000001,1.39494505494505
50.5496270000003,1.40945054945055
50.6287900000028,1.44813186813187
50.7073980000019,1.50776556776557
50.7867920000032,1.46747252747253
50.8661130000018,3.19201465201465
50.9617609999999,1.4843956043956
51.0389180000015,1.6632967032967
51.116563000001,2.15809523809524
51.1945360000022,1.17655677655678
51.2721570000015,1.22007326007326
51.3651290000007,1.27728937728938
51.4436900000013,1.33128205128205
51.521938000001,1.42153846153846
51.6104759999998,1.50373626373626
51.6898850000016,1.53274725274725
51.7610850000009,3.19201465201465
51.8426540000029,1.55208791208791
51.922063000001,1.68505494505494
52.002120000001,2.24996336996337
52.0863540000021,1.39978021978022
52.1707550000027,1.43443223443223
52.2509539999999,1.45457875457875
52.338745000001,1.45860805860806
52.4109370000027,1.46586080586081
52.4910730000027,1.5214652014652
52.5706270000003,1.51904761904762
52.6494170000032,2.60615384615385
52.7383080000021,1.51582417582418
52.8176140000001,1.7229304029304
52.8979230000004,2.22901098901099
52.9779200000018,1.23860805860806
53.060069000002,1.28454212454212
53.1471100000031,1.24827838827839
53.2188590000011,1.29340659340659
53.2986130000018,1.37318681318681
53.3786450000033,1.46747252747253
53.4592380000018,1.62864468864469
53.5389649999998,1.52952380952381
53.6249120000005,1.62139194139194
53.7064060000032,2.07347985347985
53.7925340000019,1.52710622710623
53.8652530000024,1.32967032967033
53.9446030000001,1.36190476190476
54.0256359999999,1.38849816849817
54.1143020000011,1.52227106227106
54.1944690000005,1.57948717948718
54.2757270000018,1.57465201465201
54.3621790000014,3.1847619047619
54.4341770000011,1.56175824175824
54.5218859999999,1.6632967032967
54.5939210000001,2.12989010989011
54.6763090000004,1.33934065934066
54.7536689999998,1.3159706959707
54.8427420000024,1.33128205128205
54.9146799999997,1.37157509157509
54.9945520000011,1.41186813186813
55.0848540000021,1.42637362637363
55.1647870000005,1.39252747252747
55.2524510000013,1.99208791208791
55.3243640000001,1.43040293040293
55.4048420000002,1.56498168498168
55.4927890000008,2.0025641025641
55.5643490000032,1.43282051282051
55.6558940000013,1.30468864468864
55.7279759999998,1.34739926739927
55.8170050000027,1.37157509157509
55.8969530000016,1.43604395604396
55.9688330000006,1.51663003663004
56.0579079999998,1.55128205128205
56.1297829999998,2.91076923076923
56.2176390000023,1.63267399267399
56.3055280000009,1.72454212454212
56.3854200000018,2.10410256410256
56.4577240000032,1.41831501831502
56.5375620000027,1.33934065934066
56.6175580000021,1.36593406593407
56.698012000002,1.38446886446886
56.7860180000029,1.42798534798535
56.8665240000002,1.47311355311355
56.9466650000028,1.51179487179487
57.0275460000001,1.48681318681319
57.1089160000011,1.43765567765568
57.1881400000006,1.4989010989011
57.2765899999998,1.85106227106227
57.3478010000028,1.52468864468864
57.4289020000026,1.29260073260073
57.508824000001,1.33611721611722
57.5884810000025,1.38608058608059
57.6672800000012,1.45457875457875
57.7635240000002,1.51421245421245
57.8416720000021,1.63186813186813
57.9207130000032,1.5585347985348
58.0001760000028,1.7374358974359
58.0779450000003,1.62783882783883
58.1586870000027,1.85750915750916
58.238200000003,2.24432234432234
58.3166280000024,1.42556776556777
58.3962200000025,1.43443223443223
58.4896730000004,1.4167032967033
58.5684310000017,1.41025641025641
58.6472670000009,1.43120879120879
58.728069000002,1.4618315018315
58.807012000002,1.47714285714286
58.8862460000031,1.97516483516483
58.963995000001,1.50695970695971
59.0431560000032,1.57304029304029
59.1402750000022,1.83494505494505
59.2193110000007,1.3385347985348
59.2972360000014,1.22168498168498
59.3772690000012,1.30307692307692
59.4557010000013,1.35868131868132
59.5357320000008,1.43443223443223
59.6139460000023,1.54805860805861
59.6935980000012,1.52227106227106
59.7721799999997,2.07589743589744
59.8646000000015,1.5585347985348
59.9427530000024,1.79384615384615
60.0226030000001,2.24754578754579
60.1018430000022,1.44168498168498
60.1830990000032,1.52630036630037
60.2610020000003,1.52791208791209
60.3401330000013,1.50051282051282
60.420194000002,1.4989010989011
60.5149020000026,1.60285714285714
60.5935050000027,1.51179487179487
60.6721009999998,1.28937728937729
60.7528830000013,1.66168498168498
60.8319480000027,1.87282051282051
60.908818,2.10410256410256
60.9887280000001,1.3014652014652
61.0683920000009,1.29663003663004
61.1484850000031,1.22571428571429
61.244256000001,1.27809523809524
61.3226720000021,1.3425641025641
61.397689000003,1.43765567765568
61.4764189999998,1.44732600732601
61.5554260000028,3.18798534798535
61.6405270000026,1.51663003663004
61.7287430000007,1.70681318681319
61.7957210000008,2.18630036630037
61.8922149999999,1.37076923076923
61.9716080000028,1.37399267399267
62.0428930000029,1.38527472527473
62.1294660000019,1.49809523809524
62.2100490000024,1.54564102564103
62.2973540000021,1.56578754578755
62.3773560000025,1.58835164835165
62.4579520000033,3.19120879120879
62.5295050000027,1.57626373626374
62.6212479999997,1.69794871794872
62.7012020000033,2.10893772893773
62.7811390000023,1.22249084249084
62.8609050000012,1.24021978021978
62.9337170000002,1.31516483516484
63.0215560000017,1.49326007326007
63.1038350000009,1.63912087912088
63.1833030000031,1.4207326007326
63.2638850000016,1.22410256410256
63.3443460000008,1.46344322344322
63.4162850000002,1.78981684981685
63.5037120000012,1.86959706959707
63.5837280000001,1.28534798534799
63.6719800000004,1.35223443223443
63.7512980000004,1.36190476190476
63.832382000003,1.40058608058608
63.9044370000027,1.51582417582418
63.9933110000007,1.44490842490842
64.0657110000029,1.56981684981685
64.1458839999996,1.66168498168498
64.2267550000027,2.00901098901099
64.3066210000031,1.67216117216117
64.4022900000028,1.45296703296703
64.476,1.46424908424908
64.5556590000019,1.47794871794872
64.6344260000028,1.47714285714286
64.7226650000028,1.46666666666667
64.8029850000031,1.58271062271062
64.8831240000017,1.40864468864469
64.9637070000023,1.51098901098901
65.0366860000007,1.94212454212454
65.1250430000015,1.29501831501831
65.2050390000008,1.15802197802198
65.2854470000006,1.24666666666667
65.3649590000026,1.31274725274725
65.4446170000024,1.40542124542125
65.5324350000024,1.4247619047619
65.6085810000002,2.95186813186813
65.6892939999998,1.476336996337
65.7684350000024,1.65604395604396
65.8591130000018,2.17179487179487
65.9371410000026,1.36432234432234
66.0181100000031,1.37318681318681
66.0896660000011,1.46989010989011
66.170950000003,1.52468864468864
66.2492310000025,1.67296703296703
66.3451530000009,1.57626373626374
66.4178790000007,1.19347985347985
66.4971560000032,1.56578754578755
66.5792039999999,1.78175824175824
66.6579649999998,2.03157509157509
66.7453880000003,1.27406593406593
66.8259150000028,1.31032967032967
66.9061540000029,1.36673992673993
66.9856760000028,1.42153846153846
67.0592530000024,1.49326007326007
67.1396290000007,1.35384615384615
67.2277320000008,1.37802197802198
67.315631000001,1.45457875457875
67.387387000002,1.70520146520147
67.467257000003,2.13150183150183
67.5477220000029,1.32161172161172
67.6409649999999,1.38124542124542
67.7202640000023,1.41186813186813
67.8009040000029,1.45377289377289
67.8734330000021,1.51018315018315
67.9617939999998,1.55692307692308
68.0339720000029,1.5440293040293
68.1147180000022,1.63428571428571
68.2022210000008,1.69956043956044
68.2828960000016,2.06461538461538
68.3619060000032,1.59318681318681
68.4427470000014,1.36673992673993
68.5220130000003,1.38930402930403
68.6029150000028,1.36835164835165
68.6913230000027,1.39413919413919
68.7622589999996,1.4578021978022
68.8427550000027,1.44571428571429
68.9236480000019,3.19120879120879
69.0028520000018,1.49648351648352
69.0834820000008,1.63589743589744
69.1642210000008,2.12666666666667
69.2518490000032,1.23135531135531
69.3404120000005,1.26117216117216
69.4205880000032,1.34175824175824
69.4995219999999,1.39413919413919
69.5720160000026,1.45619047619048
69.6500840000026,1.46586080586081
69.7416730000004,1.94937728937729
69.8189200000018,1.52549450549451
69.8980260000005,1.61897435897436
69.9769460000023,2.05736263736264
70.0563500000015,1.46344322344322
70.1503350000009,1.45699633699634
70.2254580000006,1.4989010989011
70.3040150000006,1.49164835164835
70.3822700000033,1.50051282051282
70.4607850000001,1.50857142857143
70.5561660000011,1.51824175824176
70.6349790000021,1.51018315018315
70.7146540000029,1.49245421245421
70.7938340000026,1.56820512820513
70.8717140000015,1.93084249084249
70.950950000003,1.53435897435897
71.0309260000028,1.29904761904762
71.1087580000013,1.26520146520147
71.2026140000001,1.28454212454212
71.2833500000015,1.35465201465201
71.3612860000022,1.43765567765568
71.4411579999998,1.56820512820513
71.5207730000019,1.54
71.5986510000005,1.40864468864469
71.6798570000008,1.55208791208791
71.7601680000015,1.79868131868132
71.8387860000022,2.00336996336996
71.9192120000012,1.33450549450549
71.9987440000027,1.3796336996337
72.0930770000033,1.45296703296703
72.1722360000014,1.52549450549451
72.2531620000005,1.54886446886447
72.3305800000019,1.63106227106227
72.408875,1.55934065934066
72.4859900000021,1.49326007326007
72.5647460000031,1.53758241758242
72.6595549999997,1.77047619047619
72.737057,2.10249084249084
72.8173399999998,1.30227106227106
72.8948300000019,1.35223443223443
72.9750150000006,1.35062271062271
73.0526600000001,1.43523809523809
73.1336430000029,1.41267399267399
73.2126100000031,1.46021978021978
73.307325000003,2.12021978021978
73.3860109999999,1.43765567765568
73.4650340000019,1.75355311355311
73.5448280000016,2.22014652014652
73.6231950000003,1.27487179487179
73.701995000001,1.16043956043956
73.7809770000018,1.23860805860806
73.8611339999996,1.22813186813187
73.9531080000028,1.32564102564103
74.0336579999998,1.45860805860806
74.1131720000021,1.4578021978022
74.1923670000024,1.41831501831502
74.2733500000015,1.65846153846154
74.350814000003,2.08637362637363
74.4303450000025,1.88490842490842
74.5107070000023,1.36432234432234
74.5890219999999,1.42153846153846
74.6846530000009,1.38688644688645
74.7634090000018,1.40058608058608
74.8383830000013,1.42395604395604
74.9177400000021,2.5207326007326
74.9984160000011,1.41347985347985
75.076813000001,1.55289377289377
75.1562100000009,2.01223443223443
75.2495590000004,1.20798534798535
75.3293590000011,1.17655677655678
75.4077970000021,1.30791208791209
75.4876570000015,1.35223443223443
75.5673320000023,1.47230769230769
75.6469200000018,1.47230769230769
75.7269780000001,3.18879120879121
75.8071000000015,1.58432234432234
75.8876270000003,1.80673992673993
75.9662670000009,2.35311355311355
76.0461390000023,1.3425641025641
76.140751000002,1.42798534798535
76.2196300000027,1.47875457875458
76.3002060000002,1.45699633699634
76.3808500000015,1.50373626373626
76.4602530000024,1.57465201465201
76.5396520000026,1.50131868131868
76.6177589999996,1.38849816849817
76.698319000002,1.4989010989011
76.7780280000009,1.81076923076923
76.8582400000021,1.7825641025641
76.9377900000028,1.24989010989011
77.0317320000008,1.30630036630037
77.1102030000016,1.26842490842491
77.1889130000025,1.25069597069597
77.2692980000004,1.37238095238095
77.3463910000026,1.3796336996337
77.4270290000029,3.18798534798535
77.5038800000027,1.4578021978022
77.5969020000026,1.64798534798535
77.6756030000001,2.24593406593407
77.7549869999997,1.3385347985348
77.8351430000029,1.33208791208791
77.9143990000002,1.40058608058608
77.9958440000005,1.45377289377289
78.0745420000032,1.55128205128205
78.1528040000014,1.67377289377289
78.2317210000008,1.63750915750916
78.3286630000025,3.1992673992674
78.4077140000015,1.64234432234432
78.4874420000017,1.81721611721612
78.5667650000006,2.32974358974359
78.6471030000001,1.33611721611722
78.7272960000001,1.30871794871795
78.8065360000022,1.30871794871795
78.8828420000002,1.27326007326007
78.9768490000032,1.36754578754579
79.0555190000013,1.46344322344322
79.133189000003,1.38285714285714
79.213307,1.35062271062271
79.2931050000005,1.40542124542125
79.3722580000013,1.49809523809524
79.450557,1.89054945054945
79.5314600000009,1.57304029304029
79.6095,1.30307692307692
79.7055160000026,1.36673992673993
79.7769180000015,1.39897435897436
79.8600160000026,1.42556776556777
79.9383830000013,1.49728937728938
80.017268000003,1.60124542124542
80.0994890000001,1.57948717948718
80.1795250000022,3.18637362637363
80.2598090000004,1.61575091575092
80.3475820000023,1.7970695970696
80.4271229999997,2.33054945054945
80.4994590000026,1.3796336996337
80.6033560000025,1.35304029304029
80.6675610000007,1.36351648351648
80.7481000000015,1.3610989010989
80.8271390000023,1.41428571428571
80.915137000002,1.45619047619048
80.9952310000025,1.70520146520147
81.0687070000023,1.46505494505495
81.1483120000027,1.46505494505495
81.2359170000032,1.88893772893773
81.3163690000027,1.39897435897436
81.4046090000011,1.24586080586081
81.4840170000009,1.33531135531136
81.5571100000031,1.37882783882784
81.6364180000015,1.43684981684982
81.7160340000018,1.51904761904762
81.7958729999997,1.50857142857143
81.8916430000029,3.19120879120879
81.9711740000024,1.53355311355311
82.0509200000018,1.69553113553114
82.130932,2.27897435897436
82.2109230000004,1.42959706959707
82.2915109999999,1.45538461538462
82.370074000001,1.44571428571429
82.4490890000015,1.47391941391941
82.5277110000029,1.47230769230769
82.6081980000027,1.56820512820513
82.6859680000022,1.4989010989011
82.7811460000016,1.42234432234432
82.8578720000014,1.48197802197802
82.935745000001,1.7414652014652
83.016939000003,2.05333333333333
83.0943900000006,1.19912087912088
83.174251000002,1.20717948717949
83.2679710000008,1.2418315018315
83.3463610000014,1.32967032967033
83.4265789999999,1.48358974358974
83.5079840000011,1.49406593406593
83.592818,1.35384615384615
83.6636760000028,1.53194139194139
83.7436830000021,1.82124542124542
83.8251220000014,1.98644688644689
83.9128440000005,1.34981684981685
83.9929990000017,1.38205128205128
84.0745,1.45296703296703
84.1541600000001,1.54725274725275
84.2256920000017,1.55450549450549
84.3144460000023,1.6592673992674
84.3941620000005,1.54483516483516
84.4746060000025,1.64234432234432
84.5618990000002,1.99450549450549
84.6342430000007,1.46666666666667
84.7139230000004,1.25553113553114
84.802881000001,1.31355311355311
84.8827640000023,1.34820512820513
84.9555850000009,1.4803663003663
85.0351220000014,1.46989010989011
85.1158660000004,1.11531135531136
85.1957600000016,1.476336996337
85.2916330000013,1.67377289377289
85.3713900000006,1.91794871794872
85.4434060000032,1.22652014652015
85.5317070000023,1.43362637362637
85.6084480000027,1.41106227106227
85.6960940000005,1.45619047619048
85.7769420000017,1.55369963369963
85.849314000003,1.79787545787546
85.9374710000008,1.49728937728938
86.0166840000004,1.59318681318681
86.0973850000016,2.06622710622711
86.177193,1.55128205128205
86.2488120000027,1.42879120879121
86.3374160000011,1.49245421245421
86.4251229999997,1.5029304029304
86.4968210000023,1.55128205128205
86.5771460000016,1.49245421245421
86.6576500000022,1.84622710622711
86.7372890000008,1.41186813186813
86.8178320000023,1.52227106227106
86.8976170000024,1.89296703296703
86.9775850000009,1.3385347985348
87.0669990000017,1.26600732600733
87.1393030000031,1.22571428571429
87.234939000003,1.27326007326007
87.3077080000006,1.3610989010989
87.3949470000006,1.44571428571429
87.4676390000023,1.57465201465201
87.5471840000004,1.47472527472527
87.6243630000018,1.56659340659341
87.7119800000005,1.94373626373626
87.8005450000018,1.51421245421245
87.8806760000028,1.35787545787546
87.9603570000008,1.40139194139194
88.0334660000019,1.44007326007326
88.1142120000012,1.58271062271062
88.1944280000031,1.58593406593407
88.2744570000023,3.19282051282051
88.354189000003,1.58190476190476
88.4341450000033,1.72534798534799
88.5222810000032,2.1814652014652
88.6105530000031,1.37076923076923
88.6908210000023,1.39897435897436
88.7619110000022,1.38930402930403
88.8514690000005,1.39333333333333
88.9314580000006,1.48923076923077
89.0109910000004,1.47714285714286
89.0859040000029,2.55941391941392
89.1649140000008,1.42959706959707
89.2445310000032,1.62622710622711
89.3408729999997,2.0396336996337
89.4206850000024,1.26681318681319
89.4926490000002,1.32322344322344
89.5731799999997,1.34981684981685
89.6492210000008,1.41509157509157
89.736870000001,1.50212454212454
89.8252039999999,1.48923076923077
89.8966670000032,3.19201465201465
89.9846700000018,1.5029304029304
90.065506000001,1.74388278388278
90.1374140000008,2.44981684981685
90.216632000003,1.49728937728938
90.2965950000025,1.44249084249084
90.3848850000016,1.41509157509157
90.465007000003,1.40542124542125
90.5448320000023,1.5174358974359
90.6247640000023,1.45538461538462
90.7050370000005,1.17413919413919
90.7938100000024,1.50131868131868
90.8659810000025,1.78417582417582
90.9456550000012,1.98080586080586
91.0259900000021,1.31194139194139
91.1145500000007,1.28051282051282
91.2025920000002,1.27326007326007
91.2823560000025,1.31677655677656
91.3628839999996,1.40058608058608
91.4342460000031,1.43282051282051
91.5148090000004,3.19604395604396
91.5926359999999,1.50695970695971
91.6799220000021,1.66652014652015
91.7604340000004,2.11457875457875
91.8508990000002,1.40945054945055
91.9292760000005,1.41589743589744
92.0012320000008,1.42556776556777
92.0820100000016,1.47794871794872
92.1704220000021,1.54080586080586
92.2505930000022,1.58351648351648
92.3303910000026,1.57062271062271
92.4018410000019,1.57304029304029
92.4818200000003,1.6552380952381
92.5780780000016,1.96388278388278
92.6505210000016,1.51985347985348
92.7298390000015,1.30710622710623
92.8191220000014,1.32644688644689
92.898813000001,1.37399267399267
92.9709869999997,1.41267399267399
93.0522270000018,1.44168498168498
93.1351469999999,1.9243956043956
93.2231600000001,1.40622710622711
93.2948969999999,1.50695970695971
93.375007000003,1.94051282051282
93.4640540000014,1.37882783882784
93.5433890000023,1.33611721611722
93.622376000002,1.40300366300366
93.7007360000014,1.42959706959707
93.7809470000006,1.48600732600733
93.8601390000023,1.51824175824176
93.9536339999996,1.89135531135531
94.0332670000009,1.50776556776557
94.1147360000014,1.71003663003663
94.1940150000006,2.13956043956044
94.2727160000019,1.58029304029304
94.3511950000003,1.46102564102564
94.4281339999996,1.42637362637363
94.5212210000008,1.37479853479853
94.5999180000015,1.37399267399267
94.6794670000002,1.38285714285714
94.7589400000013,1.30065934065934
94.8378380000032,1.21282051282051
94.9179460000023,1.36351648351648
94.9980910000019,1.75516483516484
95.0779460000023,1.71003663003663
95.1586440000012,1.25794871794872
95.2381500000022,1.29824175824176
95.3180920000002,1.34739926739927
95.3982100000009,1.41347985347985
95.4933090000004,1.52549450549451
95.5730730000027,1.50051282051282
95.6526450000033,3.16864468864469
95.7326960000023,1.50776556776557
95.8129720000029,1.6552380952381
95.8928460000008,2.09684981684982
95.9683530000001,1.42153846153846
96.0460370000005,1.40139194139194
96.1407920000032,1.50212454212454
96.2172200000025,1.52952380952381
96.297131000001,1.5810989010989
96.3771550000012,1.68989010989011
96.4571060000025,1.59399267399267
96.5357760000005,1.82769230769231
96.6157440000027,1.66490842490842
96.6931950000003,1.84380952380952
96.7736210000031,2.21450549450549
96.867893000003,1.33934065934066
96.9485180000029,1.38124542124542
97.0274930000007,1.34095238095238
97.1071920000017,1.30227106227106
97.1871500000022,1.35868131868132
97.2649820000008,1.34498168498168
97.345444000002,3.19443223443223
97.4244680000022,1.44732600732601
97.5039600000009,1.66974358974359
97.5839600000009,2.13391941391941
97.6785100000016,1.32161172161172
97.7568340000026,1.36835164835165
97.835814000003,1.39252747252747
97.9142190000005,1.44813186813187
97.99525,1.49970695970696
98.0735400000028,1.6181684981685
98.1541390000023,1.66087912087912
98.2311630000025,1.49567765567766
98.3279670000002,1.64395604395604
98.4077350000031,1.8607326007326
98.4864979999997,1.9614652014652
98.5660950000025,1.33047619047619
98.6462160000019,1.30307692307692
98.7250450000018,1.33369963369963
98.8066740000024,1.35142857142857
98.8846790000014,1.40622710622711
98.9648920000009,1.41186813186813
99.043381000001,2.93091575091575
99.121245000001,1.36835164835165
99.2162890000008,1.50454212454212
99.2954730000012,1.98483516483516
99.375370000001,1.33289377289377
99.4522790000029,1.34417582417582
99.5323859999999,1.38688644688645
99.6133670000024,1.43201465201465
99.6918370000012,1.49648351648352
99.7717369999997,1.61978021978022
99.8660320000015,1.58593406593407
99.9464120000005,1.58029304029304
100.026605,1.61172161172161
100.106353,1.94051282051282
100.185589000002,1.85428571428571
100.263032000002,1.46344322344322
100.342848000001,1.4803663003663
100.421451000001,1.48197802197802
100.500268000003,1.48681318681319
100.579668000001,1.5996336996337
100.674663000002,1.51179487179487
100.755431000002,1.44410256410256
100.835775000002,1.52710622710623
100.915672000002,1.75758241758242
100.994776000001,1.91794871794872
101.072902000003,1.29098901098901
101.152269000001,1.27567765567766
101.233270000003,1.30549450549451
101.313248,1.3425641025641
101.391056000002,1.42637362637363
101.484727000002,1.47794871794872
101.565096000001,3.19282051282051
101.641075000003,1.49970695970696
101.729197000001,1.66410256410256
101.808514000002,2.12586080586081
101.880771000002,1.3159706959707
101.968525000002,1.34739926739927
102.040807,1.40703296703297
102.120841000002,1.53435897435897
102.208108000003,1.67135531135531
102.280283,1.59318681318681
102.368473000001,1.43120879120879
102.456916000001,1.55611721611722
102.536472000003,1.79304029304029
102.612904000003,2.00820512820513
102.692278000001,1.31919413919414
102.780897,1.34498168498168
102.851734000001,1.35304029304029
102.932238000002,1.39655677655678
103.012128000002,1.4618315018315
103.092697000001,1.41509157509157
103.171726,3.20087912087912
103.260509,1.42153846153846
103.340599000003,1.54886446886447
103.420799000002,2.0581684981685
103.499881000001,1.26358974358974
103.588282000002,1.41025641025641
103.667235000003,1.4392673992674
103.746693,1.4578021978022
103.827181000002,1.56498168498168
103.907004000001,1.51098901098901
103.983638,2.01626373626374
104.075506000001,1.52227106227106
104.154360000003,1.77450549450549
104.232326000001,2.17904761904762
104.310488000002,1.38285714285714
104.387234000001,1.40864468864469
104.467425000001,1.40461538461538
104.546347000003,1.41750915750916
104.638107000001,1.44410256410256
104.718205000002,1.55128205128205
104.794541000001,1.48761904761905
104.873264000002,1.51904761904762
104.951376000002,1.56739926739927
105.044896000002,1.87362637362637
105.122588000003,1.66813186813187
105.200474000003,1.24021978021978
105.277847000003,1.30871794871795
105.370126000002,1.37076923076923
105.448803000003,1.42234432234432
105.528759,1.48681318681319
105.606934,1.54080586080586
105.686913000003,1.48197802197802
105.766366,1.53355311355311
105.845125,1.58593406593407
105.924825000003,1.93245421245421
106.006675000001,1.60527472527473
106.099605,1.36351648351648
106.179592,1.45538461538462
106.258351,1.44974358974359
106.337769000001,1.49084249084249
106.417011,1.53194139194139
106.496343000002,1.63750915750916
106.575553000003,1.55692307692308
106.652418000001,1.61172161172161
106.732286000002,1.9574358974359
106.827414000001,1.43846153846154
106.907076000001,1.30388278388278
106.985210000001,1.3570695970696
107.065745000001,1.383663003663
107.145956,1.36754578754579
107.225997000001,1.40300366300366
107.306819000002,1.43120879120879
107.386393000003,1.45457875457875
107.465472000003,1.54161172161172
107.546341000002,1.92600732600733
107.639533,1.50615384615385
107.718904000003,1.36029304029304
107.799450000003,1.40542124542125
107.878962000001,1.40945054945055
107.95991,1.44732600732601
108.038047000002,1.57142857142857
108.115619000003,1.59479853479853
108.194471000001,1.4578021978022
108.274357000001,1.6447619047619
108.367114,1.85267399267399
108.447027000003,1.98483516483516
108.526247000001,1.35304029304029
108.605988000002,1.38608058608059
108.686150000002,1.38930402930403
108.765565000001,1.40542124542125
108.844046,1.44732600732601
108.925985000003,1.44652014652015
109.003179000001,3.20087912087912
109.083281000003,1.45216117216117
109.175989,1.60527472527473
109.257588000003,2.08234432234432
109.334641000003,1.26842490842491
109.413256000001,1.32967032967033
109.493894000001,1.35142857142857
109.571812000003,1.40300366300366
109.656856000002,1.54161172161172
109.737184,1.48681318681319
109.817739,1.55531135531136
109.897182,1.64798534798535
109.977715,1.9614652014652
110.058124000002,1.57787545787546
110.146482000001,1.34659340659341
110.217851,1.5585347985348
110.298543000001,1.51824175824176
110.378249000002,1.56498168498168
110.457885000002,1.47714285714286
110.538247000001,1.42798534798535
110.626382000003,1.53355311355311
110.706608000003,1.82769230769231
110.794825000003,1.63428571428571
110.866119000003,1.30549450549451
110.946494000003,1.3385347985348
111.027105,1.3651282051282
111.116777000003,1.36835164835165
111.189629000001,1.38124542124542
111.268131000001,1.42315018315018
111.356868000001,1.4021978021978
111.436053000003,1.53516483516484
111.524123,1.93084249084249
111.603717,1.49970695970696
111.684040000003,1.38849816849817
111.761274,1.41912087912088
111.843023000002,1.44974358974359
111.916727000002,1.476336996337
112.009585000001,1.60849816849817
112.089399,1.55531135531136
112.16766,1.44007326007326
112.247664000001,1.67135531135531
112.328006000001,1.85831501831502
112.403594000001,1.99128205128205
112.495894000001,1.38205128205128
112.575256000001,1.37399267399267
112.652019000001,1.39010989010989
112.732046,1.39252747252747
112.81193,1.46505494505495
112.891494000003,1.5029304029304
112.968831,1.43443223443223
113.048879000001,1.50695970695971
113.144427000001,1.48117216117216
113.225408,1.7640293040293
113.303081,1.47472527472527
113.381121000003,1.30791208791209
113.462326000001,1.34417582417582
113.541147,1.40058608058608
113.617473000001,1.45699633699634
113.696324000001,1.51018315018315
113.790756000001,1.53355311355311
113.868848000001,3.1847619047619
113.949088000003,1.54483516483516
114.028610000003,1.69069597069597
114.10793,2.08798534798535
114.185782000002,1.46424908424908
114.263119000003,1.46827838827839
114.355280000001,1.46586080586081
114.433110000003,1.48197802197802
114.51093,1.50534798534799
114.591199000001,1.48117216117216
114.672195,3.18234432234432
114.750973000001,1.56981684981685
114.830177000001,1.71648351648352
114.925738000002,2.05091575091575
115.005866,1.39413919413919
115.084531000003,1.39413919413919
115.162165000003,1.29904761904762
115.241503000002,1.31677655677656
115.320347000003,1.38205128205128
115.399236000001,1.39655677655678
115.479364,3.18798534798535
115.55882,1.48600732600733
115.653920000002,1.61333333333333
115.734691,2.01142857142857
115.813701000001,1.35787545787546
115.890246000003,1.3756043956044
115.968781000003,1.40783882783883
116.047658,1.46263736263736
116.125627,1.56739926739927
116.220662,1.57948717948718
116.302245000001,3.18556776556777
116.379912,1.60205128205128
116.459314000003,1.72454212454212
116.540651000001,2.06703296703297
116.618738000002,1.38769230769231
116.697736000001,1.37157509157509
116.789953000002,1.37318681318681
116.855006000001,1.38769230769231
116.951080000002,1.41831501831502
117.031184,1.43282051282051
117.110369000003,2.20483516483516
117.187277000003,1.38205128205128
117.265398000002,1.51663003663004
117.346451000001,1.90505494505494
117.425738000002,1.33772893772894
117.514532000002,1.31032967032967
117.592185000002,1.38608058608059
117.673525000002,1.43684981684982
117.751509,1.4989010989011
117.832720000003,1.51501831501831
117.909459000003,3.20007326007326
117.989693,1.53758241758242
118.08373,1.696336996337
118.162182,2.20161172161172
118.239879000001,1.4392673992674
118.317646000002,1.45054945054945
118.393766000003,1.44087912087912
118.474088000003,1.44893772893773
118.569253000002,1.48117216117216
118.648400000002,1.47069597069597
118.727925000001,2.82051282051282
118.807696000002,1.49084249084249
118.88618,1.60769230769231
118.965830000002,2.0170695970696
119.045892000001,1.34578754578755
119.125280000001,1.27164835164835
119.206412,1.29098901098901
119.285868000001,1.34336996336996
119.365939000003,1.41106227106227
119.444411000002,1.55611721611722
119.539625,1.51260073260073
119.617645000003,1.40783882783883
119.692954,1.53677655677656
119.770558000002,1.75758241758242
119.849286000002,2.00901098901099
119.943162,1.34901098901099
120.021078000002,1.40703296703297
120.100740000002,1.45699633699634
120.179134,1.56659340659341
120.257556000002,1.57948717948718
120.348528000001,1.60446886446886
120.42784,1.56014652014652
120.506974000003,1.56014652014652
120.585311000001,1.61252747252747
120.665041000001,1.94534798534799
120.744852000002,1.53838827838828
120.821574000001,1.30468864468864
120.912711000003,1.37157509157509
120.993033,1.38849816849817
121.069088000003,1.43846153846154
121.148874000002,1.44410256410256
121.229044,1.45860805860806
121.322087000001,1.48197802197802
121.401037,1.45054945054945
121.480021000002,1.55531135531136
121.558724000003,1.94212454212454
121.637037,1.47472527472527
121.716720000003,1.32644688644689
121.793586000003,1.35384615384615
121.873663000003,1.40864468864469
121.967621000003,1.46827838827839
122.046911000002,1.51260073260073
122.121737,1.6592673992674
122.201668000001,1.65765567765568
122.279005000003,1.50776556776557
122.374188000001,1.66168498168498
122.454462000001,1.86959706959707
122.531342,1.95985347985348
122.611216000002,1.29985347985348
122.688925000001,1.31032967032967
122.768920000002,1.32886446886447
122.848357000001,1.37238095238095
122.928464000002,1.40945054945055
123.008235000003,1.53758241758242
123.088865000002,1.46989010989011
123.183371000003,1.35545787545788
123.262552000001,1.42556776556777
123.341297000002,1.70358974358974
123.421913000003,2.05333333333333
123.500117000002,1.32322344322344
123.577540000003,1.38608058608059
123.669207000002,1.42637362637363
123.746885000002,1.4578021978022
123.827240000002,1.49728937728938
123.908653000001,1.5625641025641
123.984228,1.59479853479853
124.063443,3.19282051282051
124.142473000001,1.63509157509158
124.223,1.77692307692308
124.303130000003,2.23062271062271
124.397392000001,1.40703296703297
124.475102000002,1.36593406593407
124.552821000002,1.39897435897436
124.630699000001,1.41267399267399
124.709935000002,1.43846153846154
124.802381000001,1.47069597069597
124.880350000001,1.58432234432234
124.959296,1.49084249084249
125.036414000001,1.38849816849817
125.116007000003,1.47150183150183
125.195507000003,1.63831501831502
125.276718000002,1.93406593406593
125.368864,1.23296703296703
125.448561000001,1.30227106227106
125.528339000002,1.34981684981685
125.608048,1.42959706959707
125.688118000001,1.47230769230769
125.767149,1.52791208791209
125.845629000001,1.56336996336996
125.925343000002,1.51904761904762
126.005860000003,1.56659340659341
126.097917000003,1.60769230769231
126.177343000002,2.02512820512821
126.255315000001,1.71567765567766
126.330243000001,1.39413919413919
126.409296,1.41992673992674
126.502482000001,1.39978021978022
126.579874000002,1.4392673992674
126.658731000002,1.49970695970696
126.738467,1.48842490842491
126.816401000001,3.20249084249084
126.89498,1.5029304029304
126.974884,1.66007326007326
127.06943,2.14117216117216
127.149946000002,1.20556776556777
127.228546,1.2192673992674
127.309720000003,1.27326007326007
127.386705000002,1.36029304029304
127.465989,1.4392673992674
127.545509,1.5810989010989
127.624995000001,1.5440293040293
127.703916000001,1.63347985347985
127.798969000001,1.5585347985348
127.879245000001,1.75355311355311
127.957198000003,2.1178021978022
128.037471000001,1.3385347985348
128.115727000002,1.43282051282051
128.192692000002,1.46666666666667
128.273396000002,1.51018315018315
128.352095000003,1.52388278388278
128.432233000003,1.60849816849817
128.527513,1.52630036630037
128.607897,1.48681318681319
128.686008000001,1.55289377289377
128.766045000002,1.80673992673993
128.842569000002,1.74227106227106
128.922589000002,1.29340659340659
129.000451000001,1.35465201465201
129.079450000003,1.35868131868132
129.175800000001,1.36915750915751
129.25582,1.45699633699634
129.333796,1.43443223443223
129.412297000002,2.3829304029304
129.490540000003,1.49728937728938
129.569618000001,1.70197802197802
129.648549000002,2.1403663003663
129.741333000001,1.29340659340659
129.817929000001,1.32564102564103
129.896843000002,1.38930402930403
129.974031000003,1.42879120879121
130.055117000002,1.49084249084249
130.134639000002,1.57626373626374
130.213891000003,3.20490842490842
130.293969000001,1.5770695970696
130.390875,1.69794871794872
130.469123,2.14761904761905
130.548546,1.33208791208791
130.629311000001,1.34175824175824
130.707668000001,1.35868131868132
130.785481000002,1.39736263736264
130.864861000001,1.45296703296703
130.943984000001,1.47714285714286
131.024328000002,2.12989010989011
131.103876000002,1.46344322344322
131.199941,1.52791208791209
131.279929000001,1.91311355311355
131.358831,1.36754578754579
131.439560000002,1.33772893772894
131.517852000002,1.39252747252747
131.596162,1.44974358974359
131.676658,1.58190476190476
131.758485000003,1.49970695970696
131.835264000002,1.8567032967033
131.914571000002,1.53919413919414
131.994208000001,1.71648351648352
132.090598000001,2.02915750915751
132.169263,1.35304029304029
132.246917000003,1.42315018315018
132.327051000003,1.48761904761905
132.402714000002,1.51018315018315
132.480387000002,1.54241758241758
132.575428000003,1.49326007326007
132.655956,1.50857142857143
132.733296,1.64798534798535
132.811544,2.00095238095238
132.891110000003,1.66652014652015
132.969743000001,1.41347985347985
133.049336000003,1.47150183150183
133.128040000003,1.38769230769231
133.220114,1.44732600732601
133.300307,1.37318681318681
133.380089000002,1.64798534798535
133.460488000002,1.43523809523809
133.540276000001,1.68666666666667
133.619324000001,1.82688644688645
133.699793000001,1.33450549450549
133.777227000002,1.36029304029304
133.858010000002,1.42798534798535
133.95157,1.49326007326007
134.030346000001,1.45135531135531
134.109845000003,2.48849816849817
134.189749000002,1.56498168498168
134.269572000001,1.73421245421245
134.349401000001,2.16212454212454
134.428856000002,1.32886446886447
134.507509,1.32564102564103
134.587724000003,1.34095238095238
134.683055,1.49003663003663
134.761844000001,1.44490842490842
134.842611000001,1.58351648351648
134.923658,1.45941391941392
135.001117000002,1.73179487179487
135.081931000002,1.93326007326007
135.161703000002,1.16527472527473
135.241712000001,1.25311355311355
135.317326000001,1.29663003663004
135.397481000002,1.36029304029304
135.488606000002,1.43765567765568
135.566690000001,1.43523809523809
135.640621000003,1.54241758241758
135.719860000003,2.0025641025641
135.808964000002,1.36835164835165
135.881102000002,1.29582417582418
135.977049000002,1.39897435897436
136.057404000003,1.41025641025641
136.137716000002,1.49245421245421
136.217347000003,3.19846153846154
136.290356000002,1.57787545787546
136.369671,1.73421245421245
136.457303000003,2.29831501831502
136.528902000003,1.28131868131868
136.617123,1.32161172161172
136.706982000001,1.36190476190476
136.785772,1.42879120879121
136.865398000002,1.41347985347985
136.946408,3.19765567765568
137.018686000001,1.39091575091575
137.097886,1.57948717948718
137.177804000001,2.04043956043956
137.266147,1.16688644688645
137.345514000002,1.24827838827839
137.427047000002,1.33208791208791
137.506842,1.40783882783883
137.586423,1.49567765567766
137.665963000003,1.70358974358974
137.746169,1.51501831501831
137.841078000002,1.62139194139194
137.920661000002,2.05655677655678
138.000435000002,1.40703296703297
138.077404000003,1.31919413919414
138.15768,1.47553113553114
138.237102000002,1.51582417582418
138.314838000003,1.62864468864469
138.392953000002,1.65201465201465
138.486863000002,1.47714285714286
138.566562000003,1.60849816849817
138.642105,1.88007326007326
138.720583000001,1.7825641025641
138.798642000001,1.29985347985348
138.892072000001,1.31194139194139
138.969592,1.36996336996337
139.046247000001,1.44571428571429
139.126457000002,1.45216117216117
139.203418000001,1.3981684981685
139.296999000002,1.42556776556777
139.375534000002,1.45619047619048
139.453244000003,1.82205128205128
139.529609000001,1.45054945054945
139.609168000001,1.29179487179487
139.690036000002,1.37721611721612
139.769359000001,1.42153846153846
139.849263,1.51501831501831
139.944825000003,1.4843956043956
140.024436000001,1.41831501831502
140.102891000003,1.54241758241758
140.183170000002,1.96630036630037
140.262831,1.75032967032967
140.340969000001,1.4247619047619
140.419495000001,1.45296703296703
140.498736000001,1.39333333333333
140.57916,1.55208791208791
140.658489,1.49648351648352
140.752659000002,1.68666666666667
140.829812000003,1.47391941391941
140.911755000003,1.71487179487179
140.985252,1.85025641025641
141.063147,1.24747252747253
141.157131000001,1.26117216117216
141.233761,1.27326007326007
141.313601,1.39091575091575
141.390423,1.4432967032967
141.467233000003,1.38124542124542
141.562593000002,1.45538461538462
141.641349000003,1.79545787545788
141.718611000001,1.60769230769231
141.798485000003,1.31677655677656
141.877573000003,1.38930402930403
141.956746000003,1.39978021978022
142.036908,1.37882783882784
142.117364,2.90432234432234
142.196994000003,1.60205128205128
142.291016000003,1.65040293040293
142.371931000002,2.09120879120879
142.449504000001,1.39413919413919
142.529515000001,1.35223443223443
142.610281000003,1.3981684981685
142.689725000001,1.48117216117216
142.768571000002,1.44168498168498
142.848398000002,2.52556776556777
142.927301000003,1.41992673992674
143.007335000001,1.61333333333333
143.086622000001,1.93809523809524
143.182788000003,1.17897435897436
143.263029000003,1.24505494505495
143.342789000001,1.30549450549451
143.422630000003,1.42959706959707
143.500656000003,1.53677655677656
143.579994000003,1.42234432234432
143.656533,1.51501831501831
143.735968000002,1.91472527472527
143.816876000002,1.41509157509157
143.905623,1.36432234432234
143.985790000003,1.3796336996337
144.058233000003,1.44007326007326
144.147285,1.47391941391941
144.22641,3.19120879120879
144.307219000001,1.58915750915751
144.386866,1.69391941391941
144.466655000001,2.09443223443223
144.555316,1.36754578754579
144.626963000003,1.32241758241758
144.715195,1.33450549450549
144.80293,1.42637362637363
144.874260000002,1.44410256410256
144.954739,1.45860805860806
145.029743000001,1.48117216117216
145.126060000002,1.78659340659341
145.206357000001,1.4392673992674
145.277702000003,1.25472527472527
145.357631000001,1.35223443223443
145.438073000003,1.40542124542125
145.518191,1.45538461538462
145.597402000003,3.1952380952381
145.678116,1.47150183150183
145.773197000001,1.63912087912088
145.853445,2.05091575091575
145.933266000003,1.39978021978022
146.013608000003,1.39655677655678
146.093521000002,1.42153846153846
146.173628000002,1.55047619047619
146.252284000002,1.5214652014652
146.331453000002,1.53516483516484
146.409032000002,1.59076923076923
146.488627,1.90989010989011
146.581933000002,1.48278388278388
146.659984000001,1.31032967032967
146.741173,1.34095238095238
146.819875,1.36351648351648
146.900143000003,1.37318681318681
146.979706,3.19443223443223
147.059546,1.44571428571429
147.140605,1.54967032967033
147.219209000003,1.98725274725275
147.310765000001,1.24586080586081
147.390774,1.30307692307692
147.470983000003,1.33611721611722
147.550855,1.40864468864469
147.627032000002,1.48600732600733
147.707154000003,1.48600732600733
147.796896000002,1.58351648351648
147.877035,2.00820512820513
147.956792000003,1.41186813186813
148.032157000002,1.37882783882784
148.112067000002,1.45135531135531
148.192,1.5174358974359
148.280448000003,1.56739926739927
148.352239,3.19282051282051
148.432060000002,1.49648351648352
148.520486000001,1.60043956043956
148.599936000001,2.03076923076923
148.681011,1.32725274725275
148.760280000001,1.37157509157509
148.839774,1.40300366300366
148.926095000003,1.51018315018315
148.997959000003,1.48520146520147
149.094207000002,1.60124542124542
149.174034000002,1.35868131868132
149.254921,1.63509157509158
149.334131000001,1.74065934065934
149.406473000001,1.24263736263736
149.494081,1.30791208791209
149.566177000001,1.383663003663
149.645922000002,1.41509157509157
149.742775000002,2.49897435897436
149.822170000002,1.45538461538462
149.900853,1.57062271062271
149.980987,2.03882783882784
150.059631000001,1.34095238095238
150.140697000001,1.45054945054945
150.220702000003,1.53838827838828
150.297246000003,1.6181684981685
150.375598000001,1.53758241758242
150.466905000001,1.54483516483516
150.544988000002,1.61172161172161
150.622434,1.90827838827839
150.699462000001,1.79626373626374
150.793010000002,1.32161172161172
150.871647,1.33611721611722
150.949138,1.33531135531136
151.028898000002,1.43362637362637
151.106846000001,1.41347985347985
151.186933000002,1.34659340659341
151.266735000003,1.36996336996337
151.346496000003,1.72212454212454
151.427094,1.47311355311355
151.523020000003,1.2789010989011
151.592375,1.33934065934066
151.672903000001,1.39413919413919
151.752386,1.46908424908425
151.839976,1.76483516483516
151.927887000002,1.49567765567766
152.000254000001,2.19677655677656
152.079666000001,2.51347985347985
152.16068,1.99289377289377
152.248278000001,1.37641025641026
152.328755000003,0.934798534798535
152.408487,0.427106227106227
152.48893,0.90014652014652
152.568382000003,3.16058608058608
152.651714000002,1.67054945054945
152.724151000001,1.37882783882784
152.812318,2.02915750915751
152.891482000001,1.66168498168498
152.979708000001,1.36915750915751
153.053307,0.676117216117216
153.132155000001,1.73421245421245
153.220733000003,1.67377289377289
153.292831,1.32644688644689
153.372378000002,1.81318681318681
153.461033,1.83978021978022
153.532221000001,1.66168498168498
153.616072000001,1.64717948717949
153.704991,1.35465201465201
153.784888,1.38446886446886
153.866213000003,1.60930402930403
153.937625,1.98725274725275
154.033710000001,1.57465201465201
154.106533,1.79304029304029
154.185923,1.61010989010989
154.266609000001,1.30227106227106
154.346433000002,1.00087912087912
154.425857000001,1.37721611721612
154.505888,1.33772893772894
154.586676000003,3.1025641025641
154.666365000002,1.19186813186813
154.746415000003,1.3651282051282
154.827170000002,2.02754578754579
154.914662,1.35304029304029
155.002757000003,1.27648351648352
155.083862,1.62058608058608
155.163885000002,1.6778021978022
155.244327000003,1.60849816849817
155.323870000001,1.10967032967033
155.404789000001,1.53758241758242
155.483739,1.69794871794872
155.56391,1.25553113553114
155.640776000001,1.29260073260073
155.719732000001,1.25311355311355
155.809272,1.39897435897436
155.881016000003,1.3385347985348
155.961413000002,1.6367032967033
156.050568,2.04527472527473
156.139367000002,1.54967032967033
156.217919,1.49084249084249
156.290711000003,1.61333333333333
156.371138,1.60849816849817
156.450396000002,1.94212454212454
156.538571000002,1.60205128205128
156.61782,1.66490842490842
156.690607000001,2.17260073260073
156.780770000003,1.58271062271062
156.858906000003,1.30549450549451
156.939485000003,1.18300366300366
157.028676000003,1.23860805860806
157.100423,1.54161172161172
157.188797000002,1.29340659340659
157.268782000002,1.76967032967033
157.340611000001,1.64556776556777
157.421728,1.03875457875458
157.500260000002,1.08065934065934
157.589347000003,1.18300366300366
157.668148000002,1.40542124542125
157.748328000002,1.27809523809524
157.825991,1.0959706959707
157.906777000003,1.4803663003663
157.987476,1.56498168498168
158.080512000002,1.55369963369963
158.160924000002,1.49970695970696
158.24016,1.66168498168498
158.318740000002,3.19120879120879
158.398314000003,1.69311355311355
158.478762000002,1.78901098901099
158.558296,1.71406593406593
158.637543000001,1.43282051282051
158.718117000002,1.46747252747253
158.809653000001,1.74791208791209
158.885772,1.69553113553114
158.964683000002,1.18783882783883
159.042610000003,1.40300366300366
159.123852000002,1.89296703296703
159.201897,1.35465201465201
159.281802000001,1.41025641025641
159.361223000001,1.37641025641026
159.458163000003,1.29582417582418
159.536761,1.53355311355311
159.613571000002,1.35223443223443
159.691803000003,1.58915750915751
159.773177000001,1.55934065934066
159.851240000002,1.24102564102564
159.931331,1.33611721611722
160.010916000001,1.29824175824176
160.090039000001,3.18556776556777
160.184911000002,1.45296703296703
160.26459,1.55289377289377
160.343762000002,1.99208791208791
160.423739,0.780879120879121
160.504742000002,0.0757509157509157
160.584708000001,0
160.661616,0
160.741098000001,0.0491575091575092
160.831787,0.696263736263736
160.909715,1.36835164835165
160.989495000001,1.36190476190476
161.066625,1.43040293040293
161.157762000002,1.65282051282051
161.235394000001,1.76322344322344
161.313982000001,3.17267399267399
161.391341000002,1.99772893772894
161.468186000001,2.25479853479853
161.548365000002,2.36600732600733
161.643848000001,1.7825641025641
161.724967,1.62945054945055
161.804207000002,1.52791208791209
161.884830000002,2.74395604395604
161.961754000001,1.49326007326007
162.040981000002,1.60608058608059
162.120982000001,2.03238095238095
162.199661000002,1.33047619047619
162.278436000001,1.39575091575092
162.358163000002,1.67619047619048
162.453177000001,1.43201465201465
162.532012000002,1.41025641025641
162.609780000001,1.4843956043956
162.689359000001,1.89296703296703
162.768713000003,1.55047619047619
162.847938000001,1.33289377289377
162.927421,1.40058608058608
163.007601,1.42556776556777
163.086467,2.46432234432234
163.181960000001,1.26278388278388
163.262063000001,1.40864468864469
163.341965,1.72695970695971
163.423545000002,1.42395604395604
163.501419,1.29260073260073
163.580833000001,1.46666666666667
163.656255000003,1.40703296703297
163.744137000002,1.40945054945055
163.818601,1.51501831501831
163.897433000002,1.79142857142857
163.985025000002,1.48520146520147
164.058929000001,1.38124542124542
164.139088000003,1.49809523809524
164.226669,1.51904761904762
164.307798,3.18395604395604
164.394708000001,1.57304029304029
164.474941,1.6221978021978
164.555812000003,1.87604395604396
164.635047000002,1.36835164835165
164.714580000002,1.40783882783883
164.795891000003,1.51260073260073
164.867896000002,1.55128205128205
164.947842,1.49245421245421
165.030684,1.47069597069597
165.125661000002,1.73179487179487
165.205666000001,1.3570695970696
165.277608000003,1.18380952380952
165.357524,1.29663003663004
165.445898000002,1.35304029304029
165.517827000003,3.18637362637363
165.605206,1.46344322344322
165.685251000002,1.68102564102564
165.763895000003,1.87201465201465
165.842572000001,1.35062271062271
165.922973000001,1.32483516483516
166.002596000001,1.32322344322344
166.082278000001,1.10564102564103
166.179105,0.797802197802198
166.258207000002,0.660805860805861
166.338765000001,0
166.416080000002,0
166.494015000001,0
166.573618000001,0
166.651259,0.362637362637363
166.730975000001,1.19347985347985
166.826707000002,1.48600732600733
166.905557,2.20644688644689
166.983969000001,2.42725274725275
167.064729000002,2.27978021978022
167.143782000002,2.25318681318681
167.224638,2.14761904761905
167.304798,3.06952380952381
167.384276000001,2.26043956043956
167.46068,2.29831501831502
167.552781000003,2.69802197802198
167.629842,1.88652014652015
167.707485000003,1.79142857142857
167.783477000002,1.79787545787546
167.878653000001,1.6552380952381
167.957908,1.68263736263736
168.033393000003,1.63428571428571
168.111960000001,1.92358974358974
168.191998,1.77934065934066
168.273601,1.49003663003663
168.352046,1.46989010989011
168.430616,1.51501831501831
168.525008000001,1.43523809523809
168.602459000003,1.45860805860806
168.681940000001,1.44571428571429
168.761337000001,1.79223443223443
168.841978,1.33611721611722
168.921574000001,1.25150183150183
168.998906000003,1.29824175824176
169.078859000001,1.32725274725275
169.158602000002,1.29421245421245
169.238764000002,2.99538461538461
169.335509,1.36835164835165
169.417080000002,1.54241758241758
169.494393000003,1.99450549450549
169.573523000002,1.31355311355311
169.650667000003,1.36351648351648
169.731425000001,1.40864468864469
169.810735000003,1.46827838827839
169.890873,1.54241758241758
169.971429000001,1.56820512820513
170.051206,1.57626373626374
170.130667000003,1.72373626373626
170.223603,2.16131868131868
170.301614,1.69794871794872
170.382024,1.62139194139194
170.461903000001,1.56336996336996
170.541489,1.49003663003663
170.622280000001,1.45699633699634
170.700898000002,1.44571428571429
170.780622000001,1.55934065934066
170.85975,1.44652014652015
170.954323000003,1.48600732600733
171.033420000002,1.89296703296703
171.108423,1.2378021978022
171.188186000001,1.12659340659341
171.265933000002,1.16769230769231
171.345276000001,1.29824175824176
171.425771000002,1.33531135531136
171.520952000003,1.54564102564103
171.600694000002,1.65201465201465
171.680790000003,1.59399267399267
171.760715,1.63509157509158
171.843979000002,1.99369963369963
171.919758000001,1.40542124542125
171.999776000001,1.36351648351648
172.079383000001,1.40703296703297
172.159343000002,1.57465201465201
172.239567000002,1.6407326007326
172.319382000003,1.696336996337
172.397382000003,1.55934065934066
172.492287,1.67941391941392
172.573408,1.58915750915751
172.651417000003,1.86798534798535
172.729468000002,1.44249084249084
172.809784000002,1.28212454212454
172.888042000003,1.30065934065934
172.966013,1.3756043956044
173.046166000001,1.43604395604396
173.125692000002,1.47714285714286
173.221894000001,1.33208791208791
173.301353,1.40542124542125
173.380616,1.44007326007326
173.459708000001,1.69311355311355
173.541141000003,1.86717948717949
173.624960000001,1.35384615384615
173.704692000002,1.41106227106227
173.777427000001,1.35948717948718
173.865123,1.55208791208791
173.945603,1.74307692307692
174.025790000003,1.54161172161172
174.108245000001,1.48842490842491
174.187361000001,1.66974358974359
174.267386,2.02754578754579
174.348490000002,2.01062271062271
174.427721000001,1.4578021978022
174.508110000003,1.46666666666667
174.594821000002,1.52227106227106
174.667812000003,1.25311355311355
174.748384,1.25150183150183
174.828539000001,1.62622710622711
174.907785,1.37802197802198
174.989081,1.55128205128205
175.070323000003,1.80673992673993
175.150605,1.14835164835165
175.238913000002,1.19267399267399
175.318159000002,1.11772893772894
175.405600000001,1.19025641025641
175.477527000003,1.31677655677656
175.557995000001,1.3425641025641
175.637783,1.57787545787546
175.717141000003,1.46827838827839
175.813049000002,1.76322344322344
175.893755000003,1.85428571428571
175.972809,1.40945054945055
176.051066,1.51179487179487
176.129608000003,1.58351648351648
176.209059,1.71245421245421
176.289322000001,1.66813186813187
176.368087000001,2.93010989010989
176.449539000001,1.69714285714286
176.528623,1.73501831501831
176.607948000003,2.04446886446886
176.704247000001,1.38688644688645
176.784022,1.35142857142857
176.861526000001,1.34739926739927
176.939622000001,1.38849816849817
177.019119000003,1.50857142857143
177.097214000002,1.45619047619048
177.176602000002,1.46021978021978
177.256115000002,1.35223443223443
177.336952000003,1.6447619047619
177.432291000001,1.69069597069597
177.510129000001,1.32644688644689
177.588950000003,1.40703296703297
177.668366,1.47794871794872
177.745639000002,1.52952380952381
177.825383000001,1.57545787545788
177.904472000003,3.19040293040293
177.998319000002,1.58271062271062
178.077947000001,1.71084249084249
178.158209000003,2.23868131868132
178.238004000001,1.53919413919414
178.316609000001,1.51582417582418
178.396792000003,1.4843956043956
178.476475000001,1.46908424908425
178.556073000003,1.47553113553114
178.636259,2.76087912087912
178.716571000002,1.50534798534799
178.796814000003,1.60527472527473
178.87634,1.98967032967033
178.970367000002,1.27164835164835
179.049763,1.30871794871795
179.129573000003,1.26520146520147
179.210348000001,1.23377289377289
179.288575000003,1.29582417582418
179.368127,2.33216117216117
179.447757000003,1.41509157509157
179.527885000002,1.58754578754579
179.608128000002,2.03802197802198
179.689427000001,1.35948717948718
179.768039000001,1.40139194139194
179.856797000002,1.41831501831502
179.937880000003,1.4843956043956
180.008906000003,1.59882783882784
180.090614,1.84864468864469
180.172098000001,1.72212454212454
180.266502,1.75435897435897
180.339269000001,2.15164835164835
180.419806000002,1.43523809523809
180.498600000001,1.37157509157509
180.578907000002,1.38688644688645
180.658804000001,1.37479853479853
180.746830000002,1.37479853479853
180.827737,2.84630036630037
180.907281000003,1.44813186813187
180.988513,1.60849816849817
181.077023000002,2.08556776556777
181.148481000002,1.16608058608059
181.228767000001,1.1410989010989
181.308597000003,1.256336996337
181.388317000002,1.34336996336996
181.468592,1.48681318681319
181.548333000001,1.49970695970696
181.632273000002,1.48358974358974
181.712269000001,1.62783882783883
181.793244000003,1.96307692307692
181.873326000001,1.59076923076923
181.953625,1.32967032967033
182.033341000002,1.39494505494505
182.114101,1.52549450549451
182.194761,1.63106227106227
182.281891000003,1.67054945054945
182.362390000001,1.57062271062271
182.442106000002,1.59399267399267
182.521928000003,1.61897435897436
182.610083000001,2.07186813186813
182.692813000001,1.40864468864469
182.764793000001,1.34095238095238
182.845393000003,1.36351648351648
182.925457000002,1.40703296703297
183.005638,1.44168498168498
183.095271000002,1.48600732600733
183.175258000001,1.57304029304029
183.248798,1.52388278388278
183.335303000003,1.44813186813187
183.415315000001,1.54805860805861
183.496170000002,1.85347985347985
183.576051000003,1.58271062271062
183.664368000001,1.30952380952381
183.744450000003,1.39010989010989
183.818176000003,1.39091575091575
183.897143000003,1.44410256410256
183.984922000002,1.48117216117216
184.058875,1.54967032967033
184.138939000003,1.70923076923077
184.227166000001,3.19282051282051
184.306641000003,1.71245421245421
184.394917000003,1.75677655677656
184.474665000003,2.19435897435897
184.547114,1.31355311355311
184.626745000001,1.27567765567766
184.715224000003,1.32241758241758
184.794700000003,1.38205128205128
184.867775000002,1.4207326007326
184.954825000003,1.45619047619048
185.037190000001,1.51904761904762
185.116628000002,1.53194139194139
185.196489,3.20732600732601
185.276999000002,1.42717948717949
185.356513,1.57626373626374
185.437115000002,2.05897435897436
185.524393000003,1.26358974358974
185.604387000002,1.32967032967033
185.681842,1.36190476190476
185.761929000001,1.45054945054945
185.840311000001,1.56981684981685
185.91993,1.52791208791209
186.013755000003,1.58271062271062
186.093895000003,1.65120879120879
186.171734000001,3.20410256410256
186.249817000002,1.90908424908425
186.328161000002,2.00820512820513
186.408219000001,2.36278388278388
186.487974000003,1.26842490842491
186.567568,1.20637362637363
186.648508000001,1.23296703296703
186.743685000002,1.21765567765568
186.824034000002,1.2643956043956
186.902496000003,1.35545787545788
186.982621000003,1.29985347985348
187.062501000002,1.59238095238095
187.139749000002,0.315897435897436
187.218796,0
187.298284000002,0
187.377311000001,0
187.457659000002,0.304615384615385
187.552589000002,0.883223443223443
187.629118000001,1.32644688644689
187.707048,1.6818315018315
187.787751000002,1.90505494505494
187.867041000001,3.17347985347985
187.946650000002,2.28703296703297
188.027389000002,2.46190476190476
188.106903000001,3.05985347985348
188.198540000003,2.27413919413919
188.277637000002,2.09282051282051
188.356193,1.96630036630037
188.435170000002,1.89619047619048
188.514931000002,1.83091575091575
188.593483000003,1.79384615384615
188.688242000002,1.71326007326007
188.778287,1.89216117216117
188.846819000002,1.57787545787546
188.927545000002,1.76322344322344
189.00718,1.9389010989011
189.085566,1.30630036630037
189.166068,1.23135531135531
189.246216000002,1.20234432234432
189.324148000002,1.29260073260073
189.401437000003,1.39010989010989
189.496114,1.45457875457875
189.574042000003,1.39897435897436
189.654559,1.53113553113553
189.732514000002,1.54886446886447
189.812084000003,1.94857142857143
189.888817000002,1.47794871794872
189.968516000003,1.34739926739927
190.061832000002,1.39252747252747
190.141728,1.49728937728938
190.222496000003,1.63509157509158
190.299645000003,1.62622710622711
190.380648000002,1.97355311355311
190.460881000001,1.60849816849817
190.539268000003,1.60124542124542
190.621042000003,2.05655677655678
190.698749000002,1.34417582417582
190.777628000002,1.29904761904762
190.872238000002,1.33934065934066
190.952878000002,1.36190476190476
191.032949000001,1.42395604395604
191.112047000002,1.4989010989011
191.191964000002,1.28937728937729
191.272475000001,1.40058608058608
191.351383000001,1.50051282051282
191.429770000003,1.8978021978022
191.510184,1.45216117216117
191.589384,1.32886446886447
191.669701000001,1.39252747252747
191.777323000003,1.49164835164835
191.840325000003,1.57062271062271
191.917979000002,1.75677655677656
191.994348000001,1.6367032967033
192.074594000001,1.61413919413919
192.167006000001,1.72373626373626
192.243370000001,1.99289377289377
192.323031000003,1.68908424908425
192.401378000002,1.41025641025641
192.480421,1.37641025641026
192.573187000003,1.38608058608059
192.651973000001,1.42234432234432
192.730989,1.43765567765568
192.812254000001,1.45619047619048
192.890154000003,2.17421245421245
192.969324000001,1.49084249084249
193.047791000001,1.696336996337
193.127394000001,1.91794871794872
193.20832,1.11047619047619
193.302821000002,1.1967032967033
193.379573000003,1.31274725274725
193.458542000003,1.39736263736264
193.537619000003,1.53919413919414
193.624095000003,1.53113553113553
193.705922000002,1.59479853479853
193.784515000001,1.59076923076923
193.863944000002,1.88893772893773
193.944097000003,1.87684981684982
194.024065000001,1.43120879120879
194.09709,1.49003663003663
194.185407000002,1.63992673992674
194.265370000001,1.65120879120879
194.353508000001,1.63347985347985
194.425232000001,1.61010989010989
194.505533,2.66014652014652
194.587260000002,1.57062271062271
194.665486000001,1.59641025641026
194.745779000003,2.04527472527473
194.826402000003,1.32564102564103
194.9065,1.35465201465201
194.994801000003,1.37318681318681
195.076846000001,1.40864468864469
195.156158,1.32322344322344
195.237888,1.26358974358974
195.316816,1.31355311355311
195.397177000001,3.20652014652015
195.476370000001,1.41106227106227
195.556734000001,1.61736263736264
195.636383000001,2.16131868131868
195.716222000003,1.27326007326007
195.812704,1.3159706959707
195.891632000003,1.43120879120879
195.971641000003,1.44893772893773
196.049006000001,1.54564102564103
196.130127,1.65443223443223
196.208095000003,1.78336996336996
196.288674000002,1.7229304029304
196.367282000002,1.70197802197802
196.446582000002,2.13472527472527
196.537960000001,1.43282051282051
196.616557,1.30871794871795
196.696827000003,1.36190476190476
196.775922000002,1.37157509157509
196.855767000001,1.39494505494505
196.935006000001,1.40622710622711
197.015390000001,1.45135531135531
197.095033,1.75677655677656
197.174279000003,1.43443223443223
197.267154000003,1.50937728937729
197.346187000003,2.01787545787546
197.426826000001,1.32322344322344
197.506856000002,1.27084249084249
197.592270000003,1.36271062271062
197.665023000002,1.40300366300366
197.744364,1.47714285714286
197.824372000001,1.51260073260073
197.904749000002,1.57304029304029
197.985165000003,1.59238095238095
198.065008000001,3.18798534798535
198.163218000002,1.64153846153846
198.240964000002,1.82769230769231
198.322352000002,2.28864468864469
198.400082000002,1.40783882783883
198.472710000001,1.3570695970696
198.564642000001,1.29098901098901
198.656036000002,1.34820512820513
198.828558000002,1.44168498168498
198.910283,1.54483516483516
198.977004000001,1.50776556776557
199.043141000003,1.51421245421245
199.102509,1.48278388278388
199.148789000001,1.76
199.210806000002,1.60849816849817
199.283706,1.1
199.371775000002,1.24666666666667
199.443683000002,1.32564102564103
199.522499000002,1.41025641025641
199.618711000003,1.4843956043956
199.696937000003,1.61655677655678
199.778352000002,1.6367032967033
199.856024,1.55611721611722
199.936431000002,1.63106227106227
200.012624000002,1.93164835164835
200.092080000002,1.82849816849817
200.172139000002,1.52468864468864
200.265789000001,1.56014652014652
200.342888,1.54886446886447
200.421866,1.56095238095238
200.502945,1.5440293040293
200.582006000001,1.55772893772894
200.661238000002,1.55692307692308
200.742525000002,3.20087912087912
200.821241,1.51179487179487
200.901581,1.61091575091575
200.979338000003,2.0992673992674
201.072740000002,1.26761904761905
201.152163000003,1.17494505494505
201.231772,1.19267399267399
201.309818,1.25794871794872
201.389632000003,1.33531135531136
201.469698000003,1.50212454212454
201.548458000001,1.51663003663004
201.628405000001,1.48117216117216
201.707451000001,1.57948717948718
201.803646000002,1.88732600732601
201.882958000001,1.74065934065934
201.962594000001,1.32805860805861
202.042628000002,1.40058608058608
202.122355,1.42717948717949
202.200712000001,1.58593406593407
202.280509,1.62864468864469
202.360675000001,1.63428571428571
202.440831,2.44498168498168
202.521664000001,1.57465201465201
202.600362,1.62783882783883
202.681084000003,2.10410256410256
202.759586000003,1.32725274725275
202.854551000003,1.31194139194139
202.934674000002,1.32483516483516
203.013617000002,1.36029304029304
203.093835000001,1.41912087912088
203.173857000001,1.37641025641026
203.253167000003,1.35787545787546
203.32957,2.56424908424908
203.40966,1.44168498168498
203.488612,1.56095238095238
203.584019000001,2.10652014652015
203.656082000002,1.3796336996337
203.737236000001,1.37802197802198
203.825129000001,1.39736263736264
203.895942000002,1.45457875457875
203.975666000001,1.51501831501831
204.055649,1.53838827838828
204.136844000001,1.63267399267399
204.223933000002,2.06783882783883
204.304509,1.68586080586081
204.391774,1.72857142857143
204.471888,2.13150183150183
204.552152000003,1.41831501831502
204.631882000003,1.28051282051282
204.711664000001,1.3385347985348
204.792315000001,1.38769230769231
204.879851,1.42556776556777
204.952587000001,1.48278388278388
205.033342,1.43684981684982
205.111707000002,1.50695970695971
205.191895000003,1.5770695970696
205.280286000002,1.89135531135531
205.359652000003,1.61655677655678
205.440179000001,1.28131868131868
205.520301000003,1.38446886446886
205.600675000001,1.40542124542125
205.688900000002,1.41186813186813
205.760301000003,1.49245421245421
205.847739,1.57062271062271
205.920619000003,1.56901098901099
206.008009,1.47875457875458
206.087982000001,1.57465201465201
206.175708000001,1.97032967032967
206.248178000003,1.98886446886447
206.335875,1.45619047619048
206.408050000001,1.44490842490842
206.495545000002,1.4167032967033
206.575512000002,1.45377289377289
206.647713000003,1.4618315018315
206.736300000001,1.51421245421245
206.816554000001,1.53032967032967
206.904512000002,2.56908424908425
206.975554000001,1.46586080586081
207.056682,1.71809523809524
207.143807,2.0767032967033
207.215650000002,1.14190476190476
207.295786000002,1.19750915750916
207.375739,1.27164835164835
207.455976,1.37318681318681
207.543799000002,1.46344322344322
207.621747000001,1.56417582417582
207.698887000002,1.57384615384615
207.793538000003,1.45216117216117
207.869978,1.59641025641026
207.949497000001,1.85347985347985
208.030147,1.87282051282051
208.107532000002,1.39575091575092
208.188525000002,1.54483516483516
208.268198000003,1.56417582417582
208.347854000002,1.56578754578755
208.427540000003,1.55450549450549
208.523610000003,1.5585347985348
208.603324000001,1.51098901098901
208.682462000001,3.19282051282051
208.762945,1.5359706959707
208.842651000001,1.6818315018315
208.921384,2.15164835164835
209.001161000002,1.33047619047619
209.079675000001,1.34659340659341
209.159482000001,1.22732600732601
209.239350000001,1.22087912087912
209.333479000002,1.30630036630037
209.413622000001,1.41831501831502
209.491638,1.54161172161172
209.571971000001,1.52630036630037
209.649523000002,1.52549450549451
209.728126000002,1.53194139194139
209.817491,1.76805860805861
209.889862,1.86879120879121
209.970620000001,1.36190476190476
210.050224000003,1.45377289377289
210.130666000001,1.5625641025641
210.210247000001,1.67619047619048
210.290532000002,1.67135531135531
210.370522,1.70842490842491
210.458133000001,1.64556776556777
210.538502,2.53443223443223
210.619011,1.51663003663004
210.698409000002,1.69150183150183
210.778536000002,2.04124542124542
210.858475000001,1.24263736263736
210.938838000003,1.28615384615385
211.019469,1.3240293040293
211.099240000002,1.36351648351648
211.195403000001,1.24908424908425
211.275381000001,1.3651282051282
211.355706,1.3981684981685
211.435729000002,1.40864468864469
211.516266000003,1.49164835164835
211.592001000002,1.86798534798535
211.680071000002,1.72454212454212
211.761448000003,1.36432234432234
211.833954,1.40380952380952
211.922632000003,1.43846153846154
211.993845000003,1.50857142857143
212.076060000002,1.54725274725275
212.163849000003,1.67135531135531
212.243819000002,1.78578754578755
212.315424000002,1.75355311355311
212.404347000003,1.73340659340659
212.475935000002,2.09040293040293
212.571743000001,1.52710622710623
212.652141000003,1.35062271062271
212.732510000002,1.3425641025641
212.805269000001,1.33450549450549
212.884495000001,1.39252747252747
212.965189000003,1.49084249084249
213.045436000001,1.47714285714286
213.125277000003,1.41912087912088
213.213446000002,1.35223443223443
213.286150000002,1.60205128205128
213.373431000002,1.87443223443223
213.454020000003,1.2643956043956
213.533448000003,1.35384615384615
213.613229000002,1.4021978021978
213.692896000002,1.49084249084249
213.773400000002,1.53194139194139
213.853308000002,1.60930402930403
213.933563000001,1.58029304029304
214.028370000001,1.58271062271062
214.106943,1.62058608058608
214.187538000002,2.07186813186813
214.266942000002,1.83736263736264
214.346992000002,1.43846153846154
214.426842,1.99611721611722
214.507316,1.40622710622711
214.587646000002,1.32241758241758
214.666846000001,1.38930402930403
214.745895000003,1.36432234432234
214.825998,3.20813186813187
214.90584,1.34175824175824
215.001213000003,1.5359706959707
215.081223000001,2.07509157509158
215.159917000003,1.15157509157509
215.239744000003,1.16608058608059
215.319705000002,1.26358974358974
215.399077000003,1.33692307692308
215.477868000001,1.42879120879121
215.557735000003,1.4843956043956
215.636808000002,2.11941391941392
215.716756000001,1.56820512820513
215.796450000003,1.68102564102564
215.891583000001,2.17260073260073
215.971875,1.4392673992674
216.051355,1.39413919413919
216.131520000003,1.43846153846154
216.212183000002,1.56820512820513
216.291753000002,1.60769230769231
216.370917000003,1.62461538461538
216.450481000002,1.64234432234432
216.530347000003,1.603663003663
216.611181000002,1.59641025641026
216.690448000003,1.59641025641026
216.772203000002,1.97516483516483
216.850847000003,1.43443223443223
216.930710000001,1.31194139194139
217.025538000003,1.33208791208791
217.103226,1.34739926739927
217.178931000002,1.2789010989011
217.258905000001,1.28776556776557
217.339217,1.37802197802198
217.431105,1.46102564102564
217.511515000001,3.20410256410256
217.590057,1.54967032967033
217.669900000002,1.70923076923077
217.748667000003,2.16937728937729
217.827928000003,1.34901098901099
217.906435000002,1.38446886446886
217.986600000001,1.41992673992674
218.064339000002,1.49003663003663
218.145520000003,1.58432234432234
218.240449000001,1.66974358974359
218.320091000002,1.71567765567766
218.398076000001,1.65604395604396
218.476945,1.55531135531136
218.557673,1.58190476190476
218.636843000002,1.84864468864469
218.715124000002,1.87684981684982
218.795067000002,1.31758241758242
218.876534000002,1.34336996336996
218.969393000003,1.34175824175824
219.048168000001,1.38285714285714
219.125530000001,1.42959706959707
219.204422000002,1.34417582417582
219.282155000001,1.36835164835165
219.360171,3.19282051282051
219.439727000002,1.43846153846154
219.531450000003,1.60285714285714
219.608696000002,2.12908424908425
219.687858000003,1.34659340659341
219.767142000001,1.4021978021978
219.845205000002,1.44571428571429
219.925257000003,1.4843956043956
220.021938000001,1.51340659340659
220.100725000001,1.5174358974359
220.179185000002,1.6367032967033
220.259868000001,3.19362637362637
220.338363000002,1.65443223443223
220.418005000003,1.71245421245421
220.498227000002,2.21289377289377
220.576947000001,1.29340659340659
220.656259,1.30307692307692
220.737146000002,1.36029304029304
220.830467,1.3796336996337
220.90975,1.4578021978022
220.988710000001,1.4618315018315
221.069302000001,1.63025641025641
221.148997000001,1.58754578754579
221.229067000002,1.74065934065934
221.305588000003,2.00095238095238
221.384403000001,1.23457875457875
221.464561000001,1.31516483516484
221.544824000001,1.37318681318681
221.640186000001,1.42153846153846
221.712205000002,1.47311355311355
221.801081,1.48358974358974
221.872159000002,3.02681318681319
221.952395000003,1.48197802197802
222.033398000002,1.58351648351648
222.113717,2.13150183150183
222.193614,1.46021978021978
222.281859000001,1.46666666666667
222.361939000003,1.48923076923077
222.441398000002,1.48278388278388
222.521600000001,1.49084249084249
222.609475000001,1.53516483516484
222.681537,1.51824175824176
222.765275000002,3.19443223443223
222.845339000002,1.4843956043956
222.935187000003,1.66087912087912
223.006511,2.15245421245421
223.088300000001,1.27164835164835
223.175658,1.22652014652015
223.247507000003,1.22490842490842
223.327411000002,1.31274725274725
223.415474000003,1.38849816849817
223.495642000001,1.47311355311355
223.575740000002,1.48923076923077
223.664096000001,3.18798534798535
223.744563000001,1.5625641025641
223.818281000003,1.70358974358974
223.897146000002,2.20322344322344
223.977197000001,1.40139194139194
224.066705000002,1.38608058608059
224.147019000001,1.44732600732601
224.226863000002,1.54886446886447
224.298721000001,1.5996336996337
224.377865000002,1.61252747252747
224.474409000002,1.63992673992674
224.554847000003,1.55369963369963
224.627089000002,1.49245421245421
224.705860000003,1.55692307692308
224.787328000002,1.84703296703297
224.867016000003,1.69391941391941
224.947366,1.29985347985348
225.026933000002,1.34498168498168
225.117013,1.34336996336996
225.196057,1.22893772893773
225.276955000002,1.30710622710623
225.356062000003,1.38043956043956
225.436704,1.44168498168498
225.516003000002,3.1952380952381
225.600126000002,1.50937728937729
225.688004000001,1.68263736263736
225.768282000002,2.20241758241758
225.848793000001,1.3610989010989
225.921011,1.42234432234432
226.000995000001,1.46021978021978
226.090385000002,1.50695970695971
226.162275000002,1.63509157509158
226.241681000002,1.7043956043956
226.321979000002,1.76725274725275
226.418255000003,1.6632967032967
226.497931000002,1.50937728937729
226.570472000003,1.55531135531136
226.658299000002,1.7825641025641
226.729655000001,1.91069597069597
226.810445,1.26117216117216
226.898994000003,1.3159706959707
227.018684,1.35223443223443
227.117104000002,1.38124542124542
227.175056000002,1.42717948717949
227.220507000003,1.40864468864469
227.298726,1.44007326007326
227.387406000003,2.85677655677656
227.460316,1.4618315018315
227.548095000003,1.59479853479853
227.627018000003,2.07347985347985
227.712470000003,1.39010989010989
227.785568,1.39494505494505
227.863904000003,1.43282051282051
227.942494000003,1.46666666666667
228.038414000001,1.46747252747253
228.116299000002,1.50937728937729
228.196921,1.68424908424908
228.277597000003,1.70600732600733
228.355577000003,3.05018315018315
228.434678000003,1.65040293040293
228.513676000003,1.73421245421245
228.593044,2.14358974358974
228.671357000001,1.30549450549451
228.766709000003,1.4021978021978
228.846308000002,1.42959706959707
228.926202000003,1.47391941391941
229.006440000001,1.53758241758242
229.085192000002,1.38688644688645
229.161109000001,2.59648351648352
229.241436000001,1.30952380952381
229.333022,1.49084249084249
229.411535,1.93809523809524
229.488552000001,1.24586080586081
229.567603,1.33047619047619
229.656516000003,1.33208791208791
229.736474000003,1.4021978021978
229.817135000002,1.45054945054945
229.888788000003,1.48278388278388
229.969602000002,1.50857142857143
230.058704,3.19040293040293
230.139749000002,1.62139194139194
230.219539000001,1.84139194139194
230.291321000002,2.31765567765568
230.370953000002,1.47150183150183
230.452056000002,1.42717948717949
230.547013,1.39978021978022
230.626691,1.42798534798535
230.699015000001,1.43362637362637
230.784027000003,1.46586080586081
230.859063000001,1.47553113553114
230.939318,1.65040293040293
231.026619000003,1.46102564102564
231.108797000002,1.55369963369963
231.190886,1.89538461538462
231.275849000003,1.34981684981685
231.356212000001,1.28454212454212
231.436582000002,1.31919413919414
231.517634,1.38285714285714
231.588514000002,1.41992673992674
231.666915000003,1.4989010989011
231.747402000003,1.62945054945055
231.841534000002,1.69391941391941
231.921939000003,1.58996336996337
232.000526000001,1.63589743589744
232.077926000003,1.85025641025641
232.157756000001,1.89619047619048
232.236327000003,1.46747252747253
232.315895000003,1.4578021978022
232.395317000002,1.52549450549451
232.490625,1.53677655677656
232.571626000002,1.50534798534799
232.649946000002,1.52468864468864
232.729644000001,1.48600732600733
232.808187000003,1.59399267399267
232.887740000002,1.5174358974359
232.966091000002,1.7374358974359
233.04543,1.97838827838828
233.136402000003,1.27809523809524
233.212781000003,1.19347985347985
233.292644000001,1.19831501831502
233.371931000002,1.29904761904762
233.450698000003,1.47150183150183
233.530504000001,1.48842490842491
233.623996000003,1.38124542124542
233.695854000002,1.603663003663
233.784745000001,1.9018315018315
233.86457,1.61897435897436
233.945176000003,1.38285714285714
234.016701000001,1.42556776556777
234.105946000002,1.44732600732601
234.179068,1.58432234432234
234.257597000003,1.71406593406593
234.337691,1.5851282051282
234.425925000001,1.62542124542125
234.505561000001,1.60205128205128
234.594030000001,1.87282051282051
234.674191,1.58754578754579
234.745819000002,1.31677655677656
234.83441,1.35787545787546
234.906720000003,1.36351648351648
234.994354000002,1.4247619047619
235.068695,1.48520146520147
235.148308000002,1.476336996337
235.242357000001,1.35384615384615
235.320632000003,1.45377289377289
235.392120000001,1.85347985347985
235.472377,1.40945054945055
235.560049000002,1.35868131868132
235.648041000001,1.41267399267399
235.721567000002,1.46424908424908
235.794624000002,1.52307692307692
235.891136,1.53355311355311
235.962874000002,3.18798534798535
236.043419,1.53758241758242
236.123795000002,1.65765567765568
236.204858000003,2.25238095238095
236.284009,1.48923076923077
236.364213000003,1.46424908424908
236.444358000003,1.45860805860806
236.523745000001,1.44732600732601
236.620592,1.55128205128205
236.700154000003,1.4803663003663
236.771810000002,1.60527472527473
236.853894000001,1.48520146520147
236.933495000001,1.68586080586081
237.022218000002,1.97758241758242
237.092690000001,1.27648351648352
237.172959000003,1.28454212454212
237.253736000001,1.2974358974359
237.333788000002,1.36915750915751
237.428528000001,1.51985347985348
237.509412,1.50534798534799
237.588997000001,1.47714285714286
237.667232000001,1.53355311355311
237.747187000003,1.76322344322344
237.827231000002,1.87040293040293
237.906686000001,1.32967032967033
237.987198000003,1.40622710622711
238.066671,1.42637362637363
238.145682,1.52791208791209
238.225056000002,1.64234432234432
238.304850000001,1.62300366300366
238.400925000001,2.35150183150183
238.480312000003,1.65765567765568
238.560396000002,1.7374358974359
238.638503000002,2.1589010989011
238.719124000002,1.41347985347985
238.798174000002,1.31194139194139
238.878233000003,1.30227106227106
238.958770000003,1.35787545787546
239.038671,1.47794871794872
239.118954,1.46344322344322
239.198254000001,3.17750915750916
239.276515000001,1.3425641025641
239.371168000001,1.4989010989011
239.451437000003,2.02915750915751
239.532344000001,1.23135531135531
239.610629000001,1.28937728937729
239.690835000001,1.3610989010989
239.771033,1.4167032967033
239.850732000001,1.47230769230769
239.930466000002,1.54805860805861
240.010589000002,1.57787545787546
240.090521000002,1.47794871794872
240.168386,1.69069597069597
240.248289000001,1.73098901098901
240.34407,2.02754578754579
240.424128000002,1.64556776556777
240.504726,1.41106227106227
240.585009,1.38608058608059
240.663989,1.40058608058608
240.744877,1.42153846153846
240.823586000003,1.46263736263736
240.903279000003,1.52630036630037
241.000614,1.61494505494505
241.061765000001,1.56901098901099
241.164102000002,1.47069597069597
241.223498,1.4392673992674
241.317035,1.69553113553114
241.394634,1.6552380952381
241.472226,1.29663003663004
241.550709000003,1.35384615384615
241.628301000003,1.41186813186813
241.709402000003,1.47230769230769
241.788273000002,1.53355311355311
241.881054000001,1.58351648351648
241.961307,1.62461538461538
242.039395000003,1.57142857142857
242.121229000002,1.4803663003663
242.199472000003,1.68021978021978
242.279668000001,1.97355311355311
242.358974000003,1.84300366300366
242.438971000001,1.4167032967033
242.51959,1.39736263736264
242.599281000003,1.38849816849817
242.692432,1.4021978021978
242.770364,1.44571428571429
242.846808000002,1.45860805860806
242.924861000001,1.80835164835165
243.002527000003,1.44490842490842
243.096874000002,1.5440293040293
243.176204,1.88974358974359
243.255712000001,1.26520146520147
243.335323000003,1.20637362637363
243.415786000002,1.27406593406593
243.494720000003,1.35062271062271
243.572821000002,1.43765567765568
243.648512000002,1.50695970695971
243.737377,1.63750915750916
243.826553000003,1.58835164835165
243.905112,1.48681318681319
243.985521000002,1.59399267399267
244.059217,1.8156043956044
244.140200000003,1.94776556776557
244.228029000003,1.48117216117216
244.306904000003,1.53758241758242
244.378599000003,1.5440293040293
244.466544,1.52227106227106
244.548058000002,1.54080586080586
244.627332000002,1.5585347985348
244.706856000002,1.52952380952381
244.788012000002,3.17750915750916
244.867709000003,1.47311355311355
244.948245000001,1.64234432234432
245.029140000001,2.05655677655678
245.118528000001,1.29260073260073
245.196369000003,1.20717948717949
245.341051000003,1.22813186813187
245.416564000003,1.28051282051282
245.481696000002,1.36190476190476
245.542536000002,1.4618315018315
245.605988000002,1.51985347985348
245.675121000003,3.07032967032967
245.755781000003,1.57626373626374
245.848576000001,1.71003663003663
245.928342,2.12263736263736
246.006591000002,1.29098901098901
246.087521000002,1.35868131868132
246.164985000003,1.48681318681319
246.243772,1.61172161172161
246.337185000002,1.67699633699634
246.414029000003,1.6181684981685
246.492113000002,1.78739926739927
246.567909000002,1.5174358974359
246.648264000002,1.71487179487179
246.726776000001,2.00175824175824
246.821721000001,1.22168498168498
246.898634,1.34659340659341
246.978608000003,1.37882783882784
247.056786000002,1.43443223443223
247.136603,1.42798534798535
247.216460000001,2.59003663003663
247.293802000001,1.383663003663
247.374568,1.55208791208791
247.469767000001,2.02351648351648
247.549816,1.27003663003663
247.625023000002,1.32805860805861
247.713620000001,1.36915750915751
247.793277000003,1.40139194139194
247.865672000002,1.49567765567766
247.945322000001,1.52791208791209
248.02568,3.19282051282051
248.114541000001,1.53355311355311
248.195104000002,1.80029304029304
248.266708000001,2.26285714285714
248.354644000001,1.50615384615385
248.452159000002,1.476336996337
248.51534,1.42717948717949
248.595154000003,1.4618315018315
248.676044,1.49326007326007
248.756336000003,1.49567765567766
248.837573000003,3.18798534798535
248.916601,1.50373626373626
249.004462000001,1.60527472527473
249.078919,2.04205128205128
249.167952000003,1.27728937728938
249.24775,1.27326007326007
249.327388,1.30468864468864
249.399644000001,1.33208791208791
249.488092,1.38608058608059
249.573746000003,1.48197802197802
249.654696000002,1.56578754578755
249.733151000001,3.19282051282051
249.811857000001,1.5440293040293
249.888732000001,1.65362637362637
249.967714000002,2.05413919413919
250.046359000001,1.36029304029304
250.140845000003,1.38930402930403
250.221252,1.52549450549451
250.296929000001,1.5810989010989
250.374104000002,1.5810989010989
250.451161000002,1.56659340659341
250.545457000002,1.52468864468864
250.622869000003,1.9243956043956
250.699474000003,1.49245421245421
250.774567000002,1.60688644688645
250.854842,2.0356043956044
250.935011,1.4803663003663
251.030931000002,1.31032967032967
251.110369000003,1.31032967032967
251.191067000002,1.28051282051282
251.271012000002,1.28615384615385
251.350014000002,1.43201465201465
251.430602000002,1.43846153846154
251.509036000002,1.42959706959707
251.589021000002,1.51260073260073
251.669967,1.75758241758242
251.748071000002,1.80996336996337
251.828095000003,1.34095238095238
251.907754000001,1.4021978021978
252.003749000002,1.42717948717949
252.081734000001,1.48278388278388
252.161530000001,1.55369963369963
252.241498,1.6407326007326
252.320588000003,1.94695970695971
252.400162,1.62300366300366
252.47925,1.70278388278388
252.558936000001,2.0170695970696
252.638752,1.41347985347985
252.719473000001,1.32967032967033
252.813226,1.34659340659341
252.892310000002,1.34175824175824
252.972420000002,1.39736263736264
253.054283,1.46989010989011
253.131454,1.50212454212454
253.212970000003,2.44095238095238
253.292536000002,1.45296703296703
253.371915000003,1.62622710622711
253.475817000002,2.03882783882784
253.545753000002,1.29904761904762
253.609534000002,1.3425641025641
253.697552000001,1.40703296703297
253.777339000002,1.45135531135531
253.864158,1.50695970695971
253.937035,1.51582417582418
254.016609000001,2.44175824175824
254.105752,1.52952380952381
254.186204,1.70681318681319
254.265399,2.16776556776557
254.346928000003,1.51663003663004
254.426195,1.43201465201465
254.506297000002,1.41912087912088
254.593989,1.42153846153846
254.666075000003,1.44087912087912
254.746034000002,1.55047619047619
254.825821000002,1.47311355311355
254.913627,1.56014652014652
254.986087000001,1.66168498168498
255.068066,1.9018315018315
255.147162,1.62139194139194
255.237449000001,1.22249084249084
255.323938000001,1.22652014652015
255.396744000003,1.29421245421245
255.476460000001,1.37479853479853
255.555866,1.45941391941392
255.636351,1.41186813186813
255.715063000001,1.49084249084249
255.795842,1.54161172161172
255.890119000003,1.88571428571429
255.971260000002,1.55369963369963
256.048217,1.37641025641026
256.125569000002,1.40058608058608
256.205330000002,1.51582417582418
256.283836000003,1.57062271062271
256.363728,1.65604395604396
256.457060000002,1.60527472527473
256.535766000003,1.5770695970696
256.614877,1.55369963369963
256.692227000002,1.75677655677656
256.787170000002,1.96871794871795
256.848501000002,1.30710622710623
256.940586000003,1.32483516483516
257.020148000002,1.37479853479853
257.098324000001,1.43604395604396
257.176459000003,1.383663003663
257.254884,1.36754578754579
257.335387000002,1.4618315018315
257.415354000002,1.44087912087912
257.495248,1.53194139194139
257.591988000002,1.96307692307692
257.664860000003,1.47150183150183
257.753981000002,1.36673992673993
257.825561000001,1.42798534798535
257.905359000001,1.45216117216117
257.985378000002,1.49728937728938
258.065682,1.55208791208791
258.146008000001,1.66893772893773
258.234440000001,1.70278388278388
258.305635000002,1.88974358974359
258.393664000001,1.65040293040293
258.474186000001,1.82205128205128
258.561962000001,2.06945054945055
258.641783,1.29663003663004
258.721609000001,1.4247619047619
258.803739,1.44571428571429
258.875063000001,1.42959706959707
258.962506000001,1.43604395604396
259.042456,1.49084249084249
259.114743000001,1.46424908424908
259.202810000002,3.19201465201465
259.292578000002,1.34336996336996
259.363107000001,1.52307692307692
259.451038000002,2.0356043956044
259.522714000002,1.27809523809524
259.610740000002,1.30549450549451
259.690222000003,1.40461538461538
259.773477000002,1.41509157509157
259.850279000003,1.4803663003663
259.929827000003,1.63186813186813
260.008947000001,1.58271062271062
260.088169,1.5810989010989
260.16875,1.62622710622711
260.247529000003,1.9243956043956
260.343234000001,2.01787545787546
260.422907000002,1.40300366300366
260.502429000001,1.41267399267399
260.582105,1.41509157509157
260.661099000003,1.45135531135531
260.740836000003,1.46586080586081
260.820764000002,1.5585347985348
260.901150000002,1.51824175824176
260.980800000001,1.46021978021978
261.060376000002,1.54483516483516
261.140158,1.80835164835165
261.220702000003,1.75838827838828
261.301129000001,1.2378021978022
261.380342,1.28937728937729
261.476393000003,1.33128205128205
261.556771000002,1.40864468864469
261.635860000003,1.49567765567766
261.716425000001,1.58593406593407
261.796267000001,1.56578754578755
261.871831,1.48278388278388
261.951907000002,1.55128205128205
262.029475000001,1.84945054945055
262.108776000001,1.71648351648352
262.206211000003,1.42717948717949
262.286373,1.50131868131868
262.364251000002,1.50615384615385
262.442841000002,1.50373626373626
262.520384,1.5174358974359
262.598236000001,1.59721611721612
262.678716000002,1.52468864468864
262.758419,1.57626373626374
262.838786000002,1.51018315018315
262.933249000002,1.74307692307692
263.012416000001,1.88732600732601
263.091588000003,1.20395604395604
263.171870000001,1.22652014652015
263.251540000003,1.2378021978022
263.332457000002,1.30307692307692
263.411991,1.46021978021978
263.492733000003,1.47956043956044
263.573095000003,1.41831501831502
263.651692000002,1.5585347985348
263.731166000001,1.86798534798535
263.810797000002,1.72131868131868
263.906540000003,1.35465201465201
263.984944000002,1.40622710622711
264.062938000001,1.46263736263736
264.140659000002,1.50212454212454
264.221053000003,1.70358974358974
264.300604000002,1.64153846153846
264.378283,2.40468864468864
264.458195,1.63750915750916
264.553462000001,1.78981684981685
264.631746000003,2.14358974358974
264.709713000003,1.30871794871795
264.786921,1.32241758241758
264.864202000003,1.34739926739927
264.957685000002,1.383663003663
265.037878000002,1.44007326007326
265.113244000003,1.47714285714286
265.190843000002,3.19765567765568
265.270700000003,1.34498168498168
265.349554000001,1.52871794871795
265.430261,2.11135531135531
265.523429000001,1.23054945054945
265.603571000002,1.28212454212454
265.683,1.39091575091575
265.762682,1.43362637362637
265.841467,1.55128205128205
265.921329,1.54
266.002609000001,1.47150183150183
266.080095000003,1.59882783882784
266.159913000003,1.9840293040293
266.239622000001,1.82930402930403
266.319541000001,1.43846153846154
266.414441,1.45699633699634
266.492837000001,1.44571428571429
266.572837000001,1.4618315018315
266.652721000001,1.4618315018315
266.731650000002,2.2370695970696
266.810476,1.46021978021978
266.890494000003,1.56336996336996
266.970195,2.03076923076923
267.063124000002,1.2829304029304
267.143632000003,1.28131868131868
267.222117000002,1.23538461538462
267.301588000003,1.31032967032967
267.380255000003,1.40945054945055
267.460931000002,1.45054945054945
267.537916000001,2.76652014652015
267.624120000001,1.47391941391941
267.704690000001,1.61575091575092
267.779436000001,2.15487179487179
267.864325000003,1.33934065934066
267.943257000003,1.33289377289377
268.036806000002,1.40461538461538
268.116445,1.42717948717949
268.195424000002,1.57545787545788
268.275247000001,1.61978021978022
268.356197000001,3.19443223443223
268.435630000003,1.57465201465201
268.514860000003,1.75677655677656
268.594528000001,2.23465201465201
268.677494000003,1.29421245421245
268.756327000003,1.30307692307692
268.836623,1.30871794871795
268.914760000002,1.34417582417582
268.995065000001,1.54967032967033
269.084014000002,1.50212454212454
269.163658,2.94542124542125
269.243665000003,1.43362637362637
269.324106000002,1.53919413919414
269.395622000001,2.05575091575092
269.484041000001,1.21443223443223
269.563707000002,1.26681318681319
269.644146000002,1.3570695970696
269.721898000002,1.40622710622711
269.816296,1.46666666666667
269.895459000003,1.57948717948718
269.971898000002,1.54805860805861
270.049237,1.35868131868132
270.129481000002,1.55531135531136
270.206196000002,1.90747252747253
270.299995000001,2.11054945054945
270.378551000003,1.42234432234432
270.45693,1.39736263736264
270.536651000001,1.39010989010989
270.615916000001,1.44007326007326
270.708630000003,1.49728937728938
270.786877,1.54080586080586
270.861986000001,1.55531135531136
270.942239,3.19443223443223
271.02125,1.50615384615385
271.099232000001,1.62542124542125
271.192454,2.04930402930403
271.271287,1.21846153846154
271.349148000002,1.28534798534799
271.429073000003,1.33531135531136
271.509868000001,1.39252747252747
271.588302000001,1.44087912087912
271.668372000001,1.58915750915751
271.747271000002,1.56417582417582
271.827316,1.64315018315018
271.906126000002,1.60608058608059
272.000552000001,1.80915750915751
272.076301000003,2.01142857142857
272.153952000003,1.32967032967033
272.235199000001,1.46102564102564
272.314096000001,1.48520146520147
272.394667000003,1.50534798534799
272.475565000001,1.51824175824176
272.554442000002,1.48681318681319
272.650388,3.19846153846154
272.730379000001,1.46666666666667
272.810101,1.61172161172161
272.889509,2.12586080586081
272.969010000002,1.28212454212454
273.046918000001,1.31032967032967
273.125572000001,1.37721611721612
273.203623,1.31677655677656
273.282924000002,1.32
273.378440000001,1.37076923076923
273.456217,3.18395604395604
273.533539000001,1.45619047619048
273.608394000001,1.61978021978022
273.689413000003,2.13230769230769
273.769729000002,1.34820512820513
273.849384,1.37479853479853
273.946216000002,1.39978021978022
274.026114,1.43765567765568
274.099010000002,1.50373626373626
274.187161000002,1.58673992673993
274.267881000001,2.58117216117216
274.339330000002,1.73421245421245
274.420424000002,1.81157509157509
274.507324000001,2.19032967032967
274.579226,1.45619047619048
274.660124000002,1.33047619047619
274.748961000003,1.39575091575092
274.835323000003,1.36754578754579
274.915641000003,1.39655677655678
274.988204,1.4247619047619
275.068934,1.46424908424908
275.156818,1.41831501831502
275.227964000002,1.40945054945055
275.317063000001,1.83736263736264
275.388779000003,1.3425641025641
275.469528000001,1.25956043956044
275.565009,1.2974358974359
275.638993000001,1.3756043956044
275.717188000001,1.47714285714286
275.795739,1.51421245421245
275.875315000001,1.61897435897436
275.955443,1.56095238095238
276.048684,1.77450549450549
276.128701000001,1.97677655677656
276.208946000002,1.41589743589744
276.286945,1.5029304029304
276.369791000001,1.54161172161172
276.447164000001,1.55128205128205
276.526852000002,1.59399267399267
276.607074000001,1.44249084249084
276.685783,1.5359706959707
276.765951000001,1.51904761904762
276.845597000003,1.89941391941392
276.941860000003,1.54080586080586
277.022169,1.33934065934066
277.102089000002,1.36754578754579
277.181589000002,1.32
277.26157,1.30307692307692
277.341211000003,1.35787545787546
277.421275000002,2.66014652014652
277.502175000001,1.43846153846154
277.581009,1.58996336996337
277.655349000003,2.09765567765568
277.735986000001,1.3385347985348
277.832021000002,1.34578754578755
277.911478,1.39413919413919
277.983397,1.45699633699634
278.073753000002,1.51663003663004
278.153347000003,1.53274725274725
278.233952000003,3.20087912087912
278.313231000002,1.63589743589744
278.393376000002,1.74388278388278
278.465352000002,2.23465201465201
278.553694000002,1.32483516483516
278.634116,1.35062271062271
278.722186000001,1.383663003663
278.801804000001,1.40945054945055
278.881278000001,1.49728937728938
278.961344000001,1.46586080586081
279.035637000002,1.40461538461538
279.122348000001,1.51904761904762
279.202654000003,1.74952380952381
279.274347000003,1.53032967032967
279.370142000001,1.19509157509157
279.442156000003,1.29018315018315
279.522440000001,1.35465201465201
279.607718000002,1.4247619047619
279.688691,1.50131868131868
279.768575000003,1.53032967032967
279.841309,3.21216117216117
279.938051000003,1.53516483516484
280.018608000003,1.67135531135531
280.089226,2.17260073260073
280.177476,1.39252747252747
280.257497000001,1.51421245421245
280.337652000003,1.52952380952381
280.418462000001,1.5359706959707
280.490594,1.52871794871795
280.647966000002,1.58915750915751
280.804044,1.50857142857143
280.879274,2.67868131868132
280.943760000002,1.52388278388278
280.996937000003,1.70197802197802
281.046048,2.13069597069597
281.093640000001,1.29340659340659
281.137574000001,1.31355311355311
281.233999000002,1.23216117216117
281.313188000001,1.28454212454212
281.393148000002,1.38124542124542
281.47391,1.51501831501831
281.553741,1.51663003663004
281.632009,1.42234432234432
281.711367000002,1.55208791208791
281.788697000001,1.87684981684982
281.869906000003,1.66652014652015
281.947881000001,1.35062271062271
282.042025000002,1.43765567765568
282.121175000001,1.46021978021978
282.202979000002,1.55934065934066
282.280518000003,1.62783882783883
282.358949000001,1.62380952380952
282.438303000003,1.74710622710623
282.516767000001,1.56498168498168
282.593885000002,1.6221978021978
282.689010000002,2.00336996336996
282.769973000001,1.39252747252747
282.848900000002,1.27406593406593
282.928906000003,1.31274725274725
283.009279000003,1.3610989010989
283.089205000002,1.4207326007326
283.168533,1.46505494505495
283.248479000002,1.40945054945055
283.328788000002,1.54080586080586
283.407781000003,1.42153846153846
283.487454,1.49970695970696
283.568210000001,1.92600732600733
283.647849000003,1.39252747252747
283.728832000002,1.32564102564103
283.808065000001,1.37076923076923
283.904115000002,1.40058608058608
283.984324000001,1.45054945054945
284.064679000001,1.50131868131868
284.137216000002,1.52227106227106
284.21743,3.19443223443223
284.296610000003,1.69230769230769
284.385137000002,1.85750915750916
284.456839000002,2.29992673992674
284.540474000003,1.34659340659341
284.625270000003,1.36673992673993
284.714237,1.38608058608059
284.798056000002,1.41025641025641
284.866018000003,1.46102564102564
284.953308000002,1.47069597069597
285.034115000002,2.8970695970696
285.114817000002,1.45860805860806
285.18691,1.51340659340659
285.266498,1.9614652014652
285.362308000002,1.23135531135531
285.442326000001,1.30549450549451
285.521970000003,1.35545787545788
285.594033,1.40945054945055
285.673171,1.45538461538462
285.752229000002,1.5585347985348
285.846762000002,1.53677655677656
285.925284000002,1.48117216117216
286.003988000002,1.58915750915751
286.080348000001,1.82849816849817
286.160612,1.87362637362637
286.240582000002,1.45860805860806
286.32041,1.47311355311355
286.400560000002,1.46102564102564
286.479990000002,1.50615384615385
286.574278000001,1.54967032967033
286.653435000002,1.5440293040293
286.732567000002,3.17831501831502
286.812082000002,1.4843956043956
286.890449000001,1.66490842490842
286.969662,2.12989010989011
287.060798,1.23377289377289
287.140017000001,1.29018315018315
287.218202000003,1.27648351648352
287.296065000001,1.29421245421245
287.376888,1.38849816849817
287.454046,1.36190476190476
287.547575000003,1.4578021978022
287.625603,1.56498168498168
287.705149,1.99128205128205
287.779003000002,1.49970695970696
287.867870000001,1.37399267399267
287.948034000002,1.40542124542125
288.020137000002,1.43846153846154
288.109108000003,1.45619047619048
288.180950000003,1.57787545787546
288.276466000002,1.94454212454212
288.356042000003,1.6367032967033
288.436177000001,1.69472527472527
288.516844000001,2.05655677655678
288.595960000001,1.38043956043956
288.676729000002,1.31032967032967
288.756116,1.35545787545788
288.836834000003,1.39010989010989
288.917625,1.43120879120879
288.997288000003,1.51904761904762
289.070842,1.45699633699634
289.159235000003,1.47875457875458
289.239360000003,1.46505494505495
289.318916000001,1.85347985347985
289.398884,1.41106227106227
289.478970000003,1.25875457875458
289.558847000003,1.30388278388278
289.640166000001,1.3570695970696
289.731655000001,1.49970695970696
289.807685000002,1.51824175824176
289.888126000002,1.53758241758242
289.968198000003,1.56014652014652
290.048794,1.8607326007326
290.128619000003,1.89538461538462
290.209567000002,1.40622710622711
290.289312000003,1.48358974358974
290.369877,1.51501831501831
290.448813000001,1.47069597069597
290.528946000002,1.53113553113553
290.617519000001,1.55531135531136
290.705218000002,1.49648351648352
290.785311000001,1.55128205128205
290.864944000002,1.96871794871795
290.945161000002,1.37399267399267
291.017809,1.31194139194139
291.098054000001,1.38688644688645
291.185836000003,1.40864468864469
291.266348000001,1.31032967032967
291.338922000002,1.35304029304029
291.434783,1.61655677655678
291.505592,1.35868131868132
291.594076000001,1.44007326007326
291.671123,1.9243956043956
291.74959,1.36029304029304
291.825891000003,1.35062271062271
291.905546,1.42395604395604
292.001870000001,1.45619047619048
292.080395000003,1.51340659340659
292.160878000002,1.52468864468864
292.239707000002,3.17025641025641
292.320130000003,1.83494505494505
292.399776000001,2.00901098901099
292.479731000002,2.39260073260073
292.559338000003,1.41831501831502
292.639616,1.37721611721612
292.718196000002,1.37802197802198
292.809971000001,1.35545787545788
292.890101,1.46827838827839
292.967901000001,1.43765567765568
293.045803000003,1.33208791208791
293.126246000003,1.40058608058608
293.205736000001,1.57787545787546
293.283290000003,1.76322344322344
293.377743000001,1.16688644688645
293.457524,1.26520146520147
293.538649,1.36593406593407
293.615917000003,1.44652014652015
293.695350000001,1.49326007326007
293.774322000001,1.50534798534799
293.854318,3.18315018315018
293.935157000002,1.54483516483516
294.014357000001,1.65684981684982
294.093807,2.1774358974359
294.188278000001,1.41831501831502
294.265716000002,1.49245421245421
294.341423,1.49728937728938
294.421520000003,1.51824175824176
294.500726,1.53113553113553
294.578566,1.58996336996337
294.658868000001,1.50776556776557
294.754087000001,1.49728937728938
294.84141,1.55450549450549
294.919749000002,1.91956043956044
294.993022,1.56901098901099
295.069852000002,1.24989010989011
295.150054000001,1.2974358974359
295.228469000001,1.27970695970696
295.308944000002,1.30388278388278
295.388473000001,1.39575091575092
295.469677000001,1.40139194139194
295.548304000001,1.41106227106227
295.644487,1.50534798534799
