Tiempo_s,Valor
0.0331759999990463,1.96388278388278
7.42280799999833,2.66901098901099
7.46091000000015,1.53274725274725
7.48413399999961,1.57868131868132
7.50631399999931,1.61897435897436
7.5370709999986,1.6221978021978
7.56736100000143,1.6447619047619
7.6000150000006,1.90586080586081
7.63378999999911,1.55369963369963
7.66211800000072,1.62864468864469
7.69238199999928,2.16857142857143
7.71858500000089,1.27728937728938
7.74643600000069,1.2007326007326
7.77459299999848,1.16930402930403
7.80545100000128,1.21040293040293
7.83233900000155,1.31274725274725
7.86205299999937,1.31113553113553
7.88998800000176,1.0959706959707
7.91927100000158,1.36673992673993
7.94715199999884,1.65765567765568
7.97452800000086,1.6221978021978
8.00014200000092,1.16930402930403
8.02804199999943,1.16688644688645
8.0541240000017,1.24586080586081
8.07926999999955,1.29501831501831
8.11120300000161,1.31194139194139
8.14062700000033,3.20571428571429
8.16750699999928,1.27084249084249
8.19743800000101,1.52065934065934
8.21950200000033,2.24673992673993
8.24585700000078,1.22168498168498
8.27337099999934,1.33531135531136
8.29901099999994,1.38608058608059
8.32709400000051,1.4392673992674
8.35643400000036,1.46989010989011
8.38276799999923,3.15252747252747
8.40886800000072,1.50534798534799
8.43752199999988,1.79868131868132
8.46507499999925,2.23062271062271
8.50007200000063,1.31919413919414
8.53460000000149,1.33369963369963
8.56333300000057,1.40945054945055
8.60714299999922,1.44652014652015
8.66259699999914,1.40058608058608
8.7216959999986,1.5996336996337
8.78422399999946,1.40703296703297
8.84353599999845,1.74549450549451
8.89137999999896,1.97274725274725
8.94950400000066,1.27084249084249
9.00119200000167,1.3425641025641
9.05307899999991,1.35545787545788
9.09403000000119,1.49003663003663
9.13064400000125,1.46021978021978
9.1622650000006,1.30307692307692
9.1894450000003,1.49326007326007
9.21930200000107,1.85912087912088
9.25544700000063,1.89619047619048
9.28477800000086,1.36351648351648
9.31790300000086,1.39978021978022
9.35543100000173,1.39575091575092
9.38665399999917,1.48923076923077
9.43234200000018,1.48520146520147
9.46820899999887,1.36029304029304
9.50737299999967,1.54805860805861
9.54018400000036,1.92761904761905
9.57081399999931,1.79868131868132
9.60060300000012,1.28534798534799
9.62630099999905,1.31516483516484
9.64924300000072,1.29985347985348
9.67227299999818,1.34336996336996
9.7025,1.6632967032967
9.72833999999985,1.35787545787546
9.75507800000161,1.5174358974359
9.77671999999881,2.10893772893773
9.80335399999842,1.2829304029304
9.82597599999979,1.29098901098901
9.85003000000119,1.35465201465201
9.87275200000033,1.37882783882784
9.89710399999842,1.42153846153846
9.92159400000051,2.95912087912088
9.95404899999872,1.43523809523809
9.97977400000021,1.68505494505494
10.0053969999999,2.24432234432234
10.0274730000012,1.33692307692308
10.0506609999985,1.35062271062271
10.0801909999996,1.35223443223443
10.1085040000007,1.37076923076923
10.1525179999992,1.38608058608059
10.1892639999986,3.17750915750916
10.2207749999985,1.46989010989011
10.2491090000011,1.64717948717949
10.2804050000012,2.20725274725275
10.3111180000007,1.31516483516484
10.338557,1.28857142857143
10.3661160000004,1.28454212454212
10.3945960000008,1.32967032967033
10.4241530000009,1.3796336996337
10.4515700000003,1.67619047619048
10.4774109999985,1.3796336996337
10.5071710000001,1.53032967032967
10.5327270000018,2.07831501831502
10.5563390000016,1.32967032967033
10.5831469999999,1.29824175824176
10.6114349999987,1.30952380952381
10.6381160000004,1.34498168498168
10.6636539999992,1.44410256410256
10.6945320000015,2.32813186813187
10.7442699999996,1.44410256410256
10.7791259999983,1.5996336996337
10.8101099999994,2.12505494505494
10.8403379999995,1.31919413919414
10.8711559999995,1.31677655677656
10.8988619999997,1.3425641025641
10.929824000001,1.3610989010989
10.9581640000008,1.47311355311355
10.9853900000006,1.40058608058608
11.0123029999994,1.4578021978022
11.0466590000018,1.51260073260073
11.0766689999998,1.87282051282051
11.1064880000018,1.44732600732601
11.1348839999996,1.30468864468864
11.1630520000011,1.32967032967033
11.1931609999985,1.36271062271062
11.2285300000012,1.43443223443223
11.2659059999995,1.45538461538462
11.2963759999983,3.2032967032967
11.3404389999993,1.47391941391941
11.3716149999984,1.71084249084249
11.4019640000016,2.13956043956044
11.4386829999983,1.32483516483516
11.4751609999985,1.4247619047619
11.524561999999,1.42556776556777
11.5586180000007,1.44168498168498
11.5917960000001,1.52388278388278
11.6269829999991,1.45619047619048
11.6759479999989,1.54241758241758
11.7231590000018,1.63186813186813
11.8462630000003,2.0807326007326
11.894199000001,1.52710622710623
11.9355830000006,1.44168498168498
11.9863060000017,1.44813186813187
12.0264910000004,1.47956043956044
12.0591389999986,1.49648351648352
12.093574000001,1.42315018315018
12.1367840000018,1.50695970695971
12.1720960000008,1.60769230769231
12.205675999999,2.03802197802198
12.2448220000006,1.43443223443223
12.2790780000016,1.34498168498168
12.3171369999982,1.36593406593407
12.3592349999994,1.37479853479853
12.4600229999982,1.46989010989011
12.5080419999994,1.43201465201465
12.5487520000003,1.26923076923077
12.5836449999996,1.47230769230769
12.6216319999993,1.88410256410256
12.6544770000018,1.63831501831502
12.6860130000003,1.30307692307692
12.7215190000013,1.30630036630037
12.7509829999991,1.31194139194139
12.7844649999999,1.37802197802198
12.8162509999983,1.37399267399267
12.8454519999996,2.63194139194139
12.876932,1.43846153846154
12.9053839999996,1.69714285714286
12.9342349999994,1.97194139194139
12.9635749999993,1.26923076923077
12.9954140000008,1.25150183150183
13.0320109999999,1.29340659340659
13.1113020000011,1.38205128205128
13.1895760000013,1.40139194139194
13.2843299999982,3.20249084249084
13.3643289999999,1.4803663003663
13.4415579999983,1.73501831501831
13.5214470000006,2.28058608058608
13.6001359999999,1.30549450549451
13.6782969999984,1.37318681318681
13.7577089999989,1.39655677655678
13.8402490000017,1.50776556776557
13.9265480000004,1.49809523809524
13.9986669999994,1.68344322344322
14.08825,1.55208791208791
14.168493999999,1.83252747252747
14.2564580000006,1.87201465201465
14.3278480000012,1.27648351648352
14.4166030000001,1.32805860805861
14.496182,1.33047619047619
14.5764679999985,1.38043956043956
14.6561889999993,1.37157509157509
14.7370590000004,3.20168498168498
14.8182030000016,1.40380952380952
14.8975340000018,1.62783882783883
14.9783420000002,2.09362637362637
15.0512580000013,1.21443223443223
15.1470109999999,1.26520146520147
15.2189759999998,1.30549450549451
15.3071180000007,1.3651282051282
15.3873289999999,1.476336996337
15.4670590000004,1.41831501831502
15.5392289999984,1.49648351648352
15.6273530000001,1.58351648351648
15.7060100000016,2.09040293040293
15.782300999999,1.43765567765568
15.8611030000001,1.31032967032967
15.9557930000015,1.45377289377289
16.0350080000013,1.45941391941392
16.1136160000004,1.54241758241758
16.193300999999,1.4989010989011
16.2737930000015,1.30791208791209
16.3518090000004,1.5174358974359
16.4310439999998,1.89941391941392
16.5098020000011,1.60930402930403
16.5903640000001,1.24424908424908
16.6856719999984,1.33208791208791
16.7614389999993,1.34739926739927
16.842574000001,1.38446886446886
16.9217410000004,1.43120879120879
16.9974719999991,1.42879120879121
17.0760419999994,1.42395604395604
17.1560119999982,1.59399267399267
17.2517140000015,2.2
17.3299010000005,1.51340659340659
17.4087619999982,1.476336996337
17.48925,1.53435897435897
17.5681499999985,1.56820512820513
17.6463859999999,1.62703296703297
17.7269959999993,1.72857142857143
17.8072609999999,1.65684981684982
17.8873359999992,1.73018315018315
17.9670359999985,1.82608058608059
18.048125,2.27655677655678
18.1276149999984,1.61252747252747
18.215618999999,1.39333333333333
18.2961739999987,1.4021978021978
18.3832899999991,1.40058608058608
18.4632840000018,1.41347985347985
18.5351429999992,1.38688644688645
18.6157930000015,2.43208791208791
18.695875,1.36432234432234
18.7755,1.53516483516484
18.862811999999,2.14681318681319
18.9507199999988,1.1185347985348
19.0328779999986,1.12336996336996
19.1129250000007,1.20717948717949
19.1927490000017,1.23296703296703
19.2649160000011,1.29582417582418
19.3444290000014,1.36835164835165
19.4249140000008,1.31838827838828
19.513129999999,1.36996336996337
19.5974770000018,1.49084249084249
19.6784169999994,2.00336996336996
19.7501519999988,1.37882783882784
19.8386770000011,1.27245421245421
19.9099050000012,1.30388278388278
19.9906959999986,1.39736263736264
20.0796400000006,1.43040293040293
20.1599149999991,1.48197802197802
20.2403489999995,1.49326007326007
20.3201920000017,3.20168498168498
20.4076649999991,1.476336996337
20.4799860000014,1.72373626373626
20.5679030000009,2.32410256410256
20.6486279999986,1.33531135531136
20.7207899999991,1.40461538461538
20.8084990000017,1.46747252747253
20.8890540000014,1.53355311355311
20.9764970000014,1.56014652014652
21.0501009999998,1.58915750915751
21.1310119999982,3.1847619047619
21.2188289999999,1.65765567765568
21.2983159999996,1.96307692307692
21.3703449999988,2.39985347985348
21.4501050000004,1.44007326007326
21.530381000001,1.47069597069597
21.6189809999987,1.47311355311355
21.6979169999994,1.47311355311355
21.7765799999982,1.51179487179487
21.856818,1.49728937728938
21.9355089999996,2.79150183150183
22.0151490000002,1.53758241758242
22.0947219999991,1.75758241758242
22.190693,2.10168498168498
22.2718110000007,1.22490842490842
22.3505670000017,1.24989010989011
22.4340089999996,1.25875457875458
22.5117010000013,1.29904761904762
22.6477230000012,1.35142857142857
22.7053960000016,1.33531135531136
22.7671449999996,3.20813186813187
22.8281220000014,1.36029304029304
22.9058060000017,1.58835164835165
23.0005749999993,2.12989010989011
23.0759800000004,1.19831501831502
23.1576519999988,1.25794871794872
23.2355379999988,1.28937728937729
23.3157679999992,1.3385347985348
23.3922930000015,1.46989010989011
23.4723969999999,1.43765567765568
23.5655810000002,1.40945054945055
23.6435340000018,1.49648351648352
23.7235610000007,1.82285714285714
23.8023200000003,1.90586080586081
23.8814149999991,1.26600732600733
23.9576240000017,1.4021978021978
24.0540390000008,1.48197802197802
24.1328319999985,1.4843956043956
24.2102829999998,1.4578021978022
24.290307,2.32410256410256
24.3686460000016,1.38527472527473
24.449943,1.52630036630037
24.5283299999982,2.06703296703297
24.6064140000008,1.23135531135531
24.6998139999993,1.22087912087912
24.778188000001,1.24908424908425
24.8561449999996,1.28454212454212
24.9323570000008,1.28373626373626
25.0249620000012,1.31677655677656
25.1054079999998,3.20087912087912
25.1819759999998,1.4207326007326
25.2615659999996,1.68102564102564
25.3400650000013,2.2
25.4175159999989,1.31113553113553
25.4955,1.3651282051282
25.5880219999999,1.41267399267399
25.6665329999998,1.45216117216117
25.7469149999991,1.55611721611722
25.8270560000017,1.52630036630037
25.9071680000015,2.9196336996337
25.9835219999999,1.5851282051282
26.0632789999992,1.8647619047619
26.1586169999987,2.24835164835165
26.2387109999992,1.29985347985348
26.3176279999986,1.3385347985348
26.3964459999986,1.36271062271062
26.4775689999983,1.41428571428571
26.5663570000008,1.41025641025641
26.6386640000008,3.20087912087912
26.718193,1.41106227106227
26.8121449999996,1.60124542124542
26.8787399999984,2.23062271062271
26.9585839999989,1.19589743589744
27.0347870000005,1.25230769230769
27.1279349999987,1.29904761904762
27.2065130000003,1.3425641025641
27.2853289999999,1.43684981684982
27.3647210000008,1.43523809523809
27.444324000001,3.11545787545788
27.5231369999982,1.47714285714286
27.6022019999996,1.75032967032967
27.682118999999,2.17904761904762
27.7759670000002,1.30871794871795
27.8537369999997,1.34095238095238
27.9325520000011,1.41106227106227
28.0124979999997,1.47794871794872
28.0927280000001,1.50937728937729
28.1727690000013,1.49567765567766
28.2515439999998,3.21377289377289
28.3303159999996,1.47391941391941
28.4239930000007,1.66490842490842
28.5024809999987,2.2821978021978
28.5797210000008,1.29663003663004
28.6605199999996,1.35142857142857
28.740875,1.38849816849817
28.8192390000001,1.44490842490842
28.8983480000012,1.55611721611722
28.9769470000006,1.52549450549451
29.0710359999985,3.18798534798535
29.1505,1.65282051282051
29.2275139999986,1.90908424908425
29.306870000001,2.55860805860806
29.3870560000017,1.61494505494505
29.4656710000001,1.62300366300366
29.5584959999993,1.68344322344322
29.638949000001,1.70842490842491
29.7176860000007,1.74549450549451
29.7987939999998,1.76564102564103
29.8749780000001,1.76161172161172
29.9544189999998,1.7785347985348
30.0338790000007,1.82446886446886
30.1120920000002,2.27333333333333
30.2062950000018,1.51582417582418
30.2850260000005,1.37721611721612
30.3661730000004,1.3610989010989
30.4445989999995,1.33450549450549
30.5242679999992,1.32161172161172
30.604436999999,1.35384615384615
30.6849019999988,1.31919413919414
30.7631860000007,3.20652014652015
30.8412430000007,1.27728937728938
30.9366979999989,1.46102564102564
31.0153770000003,2.00739926739927
31.0938559999987,1.08791208791209
31.1740520000011,1.12739926739927
31.2515920000002,1.17494505494505
31.3293729999997,1.23860805860806
31.4074239999987,1.29340659340659
31.4876130000018,1.4247619047619
31.5823090000004,1.40380952380952
31.6620069999993,1.29824175824176
31.7425450000018,1.47472527472527
31.8239739999995,1.91150183150183
31.9017910000011,1.56578754578755
31.9795390000008,1.28131868131868
32.0596270000003,1.34336996336996
32.1392300000004,1.34901098901099
32.2173669999987,1.3756043956044
32.2965320000015,1.3981684981685
32.392875,1.83736263736264
32.4717010000013,1.38930402930403
32.5494659999982,1.54322344322344
32.6277600000016,2.11135531135531
32.707550999999,1.30871794871795
32.7850249999985,1.28131868131868
32.8647100000009,1.32161172161172
32.9597149999999,1.27487179487179
33.0385080000013,1.33289377289377
33.1167960000001,1.46021978021978
33.1967419999987,1.39897435897436
33.2770780000016,1.48197802197802
33.3557030000016,1.52630036630037
33.4362679999992,1.96952380952381
33.5151319999993,1.50454212454212
33.5921669999994,1.31113553113553
33.6888720000014,1.33692307692308
33.7680689999983,1.37318681318681
33.8478020000011,1.4247619047619
33.9271779999994,1.55289377289377
34.0057529999986,1.54805860805861
34.084256000001,1.57223443223443
34.1620150000006,1.53274725274725
34.2408330000006,1.85912087912088
34.3216240000017,2.03802197802198
34.4154750000015,1.29421245421245
34.4952109999992,1.32322344322344
34.573324000001,1.34498168498168
34.6526110000014,1.38446886446886
34.7320370000005,1.41025641025641
34.8115430000015,2.10571428571429
34.8917280000001,1.41428571428571
34.9718319999985,1.50534798534799
35.0513640000001,2.08798534798535
35.1465089999996,1.25956043956044
35.2249340000004,1.27003663003663
35.3037780000009,1.33289377289377
35.3820500000007,1.36754578754579
35.4617619999982,1.41428571428571
35.5412569999993,1.45860805860806
35.6296119999997,1.92520146520147
35.7098460000008,1.41025641025641
35.7906339999996,1.56014652014652
35.8714569999985,2.14117216117216
35.9506140000001,1.42315018315018
36.0240760000013,1.39333333333333
36.1135529999994,1.39252747252747
36.1929239999987,1.39575091575092
36.2644050000012,1.43201465201465
36.3531279999986,1.54322344322344
36.4407159999982,1.50695970695971
36.5129800000004,1.32725274725275
36.6013669999987,1.50212454212454
36.6736510000005,1.88652014652015
36.7598289999999,1.77772893772894
36.869943,1.28615384615385
36.9443189999983,1.32805860805861
37.002318,1.28131868131868
37.0816999999993,1.36029304029304
37.1632859999985,1.49164835164835
37.2417190000005,1.45054945054945
37.3221979999989,1.3610989010989
37.4011999999993,1.54564102564103
37.4898170000017,1.9759706959707
37.5605469999984,1.55128205128205
37.645756000001,1.30710622710623
37.7351970000006,1.36190476190476
37.8144569999985,1.37076923076923
37.8870399999991,1.40058608058608
37.9670229999982,1.60285714285714
38.0556259999983,1.51904761904762
38.1267399999984,1.57465201465201
38.2153920000009,1.50454212454212
38.2887089999989,1.78014652014652
38.3834750000015,1.98725274725275
38.4623420000002,1.28695970695971
38.542506000001,1.31274725274725
38.621625,1.32644688644689
38.6938649999984,1.37399267399267
38.783561999999,1.43765567765568
38.8626339999996,1.46021978021978
38.9430359999985,3.1952380952381
39.0231799999997,1.41428571428571
39.1130089999996,1.60930402930403
39.1921700000018,2.2040293040293
39.2722989999987,1.30791208791209
39.3528599999994,1.34578754578755
39.4323029999994,1.3756043956044
39.5050199999996,1.40139194139194
39.591699000001,1.47472527472527
39.6717769999988,1.45054945054945
39.7509649999999,3.19846153846154
39.8284600000009,1.45860805860806
39.9090529999994,1.65120879120879
40.004443,2.31201465201465
40.0819649999998,1.35626373626374
40.1625430000015,1.34820512820513
40.2403649999984,1.35384615384615
40.3215,1.36835164835165
40.3995379999988,1.39655677655678
40.4807329999991,1.41992673992674
40.5587289999984,2.8374358974359
40.6366449999996,1.41992673992674
40.7320819999985,1.56417582417582
40.8128880000003,2.12344322344322
40.9007039999999,1.30710622710623
40.9788390000015,1.23860805860806
41.0556469999999,1.27648351648352
41.1289549999982,1.32725274725275
41.2075460000001,1.39494505494505
41.2852879999988,1.51663003663004
41.3667080000006,1.40864468864469
41.459693,1.49084249084249
41.53975,1.55772893772894
41.6149910000004,1.98
41.6944679999985,1.5359706959707
41.782368999999,1.34417582417582
41.8629189999998,1.36835164835165
41.9434869999997,1.4392673992674
42.0246259999983,1.49648351648352
42.0951050000004,1.58593406593407
42.1830450000018,1.51824175824176
42.2718020000011,1.45296703296703
42.3510560000017,1.61010989010989
42.4229090000018,1.99208791208791
42.5121469999999,1.6367032967033
42.5915700000003,1.27003663003663
42.6718920000009,1.31113553113553
42.7431330000013,1.32886446886447
42.8235670000017,1.36271062271062
42.9120119999982,1.41186813186813
43.0010199999996,1.45054945054945
43.0727589999996,1.33611721611722
43.1522149999998,1.4803663003663
43.2409640000015,1.9985347985348
43.312254999999,1.36351648351648
43.3994129999988,1.30307692307692
43.4803660000004,1.35626373626374
43.5525029999986,1.37802197802198
43.6462179999985,1.42637362637363
43.7182300000004,1.54080586080586
43.7982470000014,1.50373626373626
43.8780460000001,1.40058608058608
43.9586970000006,1.63428571428571
44.0489279999994,1.9759706959707
44.1281590000019,1.76564102564103
44.1997950000018,1.35142857142857
44.2876640000008,1.36271062271062
44.367807,1.35868131868132
44.4475009999983,1.40703296703297
44.5357939999998,1.49728937728938
44.6157820000015,1.48923076923077
44.6890489999987,3.20007326007326
44.7770260000005,1.55692307692308
44.8487329999991,1.85509157509157
44.9288590000011,2.41516483516484
45.0094059999995,1.44813186813187
45.0998779999986,1.55934065934066
45.171256000001,1.63509157509158
45.2665749999993,1.68908424908425
45.3388920000009,1.83413919413919
45.4265789999999,1.76725274725275
45.5067859999984,1.53032967032967
45.5811620000005,1.76322344322344
45.669875,2.07347985347985
45.7492749999985,1.92761904761905
45.8213590000011,1.42798534798535
45.9090210000016,1.44007326007326
45.9891770000011,1.51098901098901
46.0701829999983,1.48681318681319
46.150375,1.52468864468864
46.2251840000004,1.4989010989011
46.3118379999995,3.20087912087912
46.3920430000015,1.46505494505495
46.4715610000007,1.6818315018315
46.5519290000014,2.14520146520147
46.6317630000003,1.21362637362637
46.712506000001,1.22490842490842
46.792004999999,1.25230769230769
46.8725080000013,1.27084249084249
46.9517419999987,1.26681318681319
47.0412390000001,1.28212454212454
47.1210080000013,3.20410256410256
47.2090300000012,1.32241758241758
47.2809439999983,1.53919413919414
47.3607820000015,2.16131868131868
47.4407529999986,1.19428571428571
47.5213489999995,1.23941391941392
47.6090540000014,1.28373626373626
47.6880100000016,1.30710622710623
47.7646559999995,1.42637362637363
47.85725,1.40139194139194
47.9376840000004,1.25472527472527
48.0140830000006,1.54886446886447
48.0942259999998,1.89538461538462
48.1734470000006,1.68263736263736
48.2534530000016,1.26842490842491
48.3306840000004,1.31516483516484
48.4102829999998,1.31758241758242
48.4895350000001,1.3570695970696
48.5832109999992,1.50131868131868
48.6625729999989,1.44571428571429
48.7431369999982,1.45377289377289
48.8226330000013,1.45699633699634
48.9002670000009,1.7640293040293
48.9808249999993,1.86959706959707
49.0614059999995,1.21846153846154
49.1402639999986,1.28454212454212
49.2226030000001,1.32564102564103
49.3138660000004,1.37479853479853
49.3931050000004,1.43201465201465
49.4728520000018,1.45860805860806
49.5524869999997,3.20168498168498
49.6299800000004,1.46666666666667
49.7100789999999,1.70520146520147
49.790754999999,2.29267399267399
49.8702769999988,1.31194139194139
49.9506660000011,1.41106227106227
50.0406669999994,1.42556776556777
50.1195489999987,1.44652014652015
50.1999499999993,1.52630036630037
50.2792159999982,1.47311355311355
50.367193,2.483663003663
50.4475390000008,1.49809523809524
50.519370000001,1.76
50.6076380000003,2.10652014652015
50.6879800000004,1.25311355311355
50.7602509999983,1.30468864468864
50.8478630000018,1.32161172161172
50.9204800000004,1.36271062271062
51.0082930000015,1.35223443223443
51.088807,1.38124542124542
51.1700560000017,3.20571428571429
51.2492699999996,1.42798534798535
51.3287430000007,1.6632967032967
51.4168090000004,2.21369963369963
51.4889629999995,1.29098901098901
51.5687289999984,1.34175824175824
51.6493660000004,1.36835164835165
51.742061999999,1.40380952380952
51.8219710000008,1.43604395604396
51.9028249999993,1.52630036630037
51.9804090000018,1.52630036630037
52.0606790000014,1.5956043956044
52.140432,1.60688644688645
52.2555069999993,2.00659340659341
52.3159420000017,1.56417582417582
52.3792320000008,1.29824175824176
52.4717789999992,1.32967032967033
52.5485379999988,1.34175824175824
52.6262820000015,1.41509157509157
52.7058590000011,1.55369963369963
52.7827639999986,1.47956043956044
52.8780280000009,2.22498168498168
52.9554230000004,1.41428571428571
53.0327360000014,1.69311355311355
53.1103619999997,2.08315018315018
53.190557,1.23941391941392
53.2688299999982,1.32241758241758
53.3634580000006,1.35868131868132
53.4417080000006,1.383663003663
53.5203449999988,1.44410256410256
53.5983660000004,1.45377289377289
53.678379999999,3.236336996337
53.7578399999999,1.46102564102564
53.8378440000005,1.66571428571429
53.9263539999984,2.28542124542125
53.998186999999,1.38446886446886
54.0875940000005,1.38769230769231
54.1680119999982,1.38527472527473
54.239375,1.4021978021978
54.3205100000016,1.43120879120879
54.4078570000008,1.52871794871795
54.4957190000005,1.42234432234432
54.5675089999996,1.48761904761905
54.6553770000003,1.5174358974359
54.7281359999999,1.94695970695971
54.8085289999992,1.52791208791209
54.8886970000006,1.30468864468864
54.9688000000007,1.29663003663004
55.0504840000011,1.34417582417582
55.129868999999,1.38930402930403
55.2179820000008,1.49326007326007
55.3062239999995,1.50051282051282
55.3868649999984,1.70681318681319
55.4665969999991,1.5174358974359
55.5387919999994,1.82769230769231
55.6305119999982,2.07428571428571
55.709868999999,1.28373626373626
55.7905700000003,1.33692307692308
55.8634470000006,1.37479853479853
55.9514609999992,1.44249084249084
56.0232969999984,1.57626373626374
56.1056469999999,1.52871794871795
56.1834279999994,1.383663003663
56.2717309999987,1.53113553113553
56.3660370000005,1.89296703296703
56.4323020000011,1.65443223443223
56.5112309999988,1.27164835164835
56.5992939999998,1.34578754578755
56.6726649999991,1.35384615384615
56.7554549999982,1.39413919413919
56.8410599999987,1.4432967032967
56.9134230000004,1.45699633699634
56.9929109999985,3.19846153846154
57.0762089999989,1.39413919413919
57.1571579999998,1.64798534798535
57.2360150000006,2.2040293040293
57.3165480000004,1.28695970695971
57.4049420000017,1.34417582417582
57.4843640000001,1.34739926739927
57.5635659999996,1.39413919413919
57.6508880000003,1.45135531135531
57.731006000001,1.50131868131868
57.8078060000017,1.80029304029304
57.8880610000007,1.476336996337
57.9665269999988,1.69230769230769
58.0470709999986,2.20805860805861
58.1425179999992,1.44732600732601
58.2223599999994,1.31677655677656
58.2994210000001,1.35062271062271
58.3774990000017,1.36835164835165
58.4570150000006,1.42879120879121
58.5363509999998,1.43604395604396
58.6143359999992,3.20087912087912
58.6933280000016,1.45135531135531
58.7862960000001,1.69794871794872
58.8643189999983,2.20241758241758
58.9425109999999,1.25150183150183
59.0222280000001,1.24666666666667
59.0990130000003,1.30871794871795
59.1782349999994,1.35948717948718
59.2736420000009,1.44410256410256
59.3539279999994,1.4618315018315
59.4335949999988,3.20490842490842
59.5135760000013,1.47311355311355
59.5967129999995,1.67377289377289
59.6767419999987,2.28058608058608
59.7569270000011,1.31677655677656
59.8375760000013,1.35787545787546
59.909568,1.37399267399267
59.9918000000007,1.49648351648352
60.0728330000006,1.53032967032967
60.1606359999999,1.60446886446886
60.2409930000007,1.50454212454212
60.3122800000012,1.6181684981685
60.4004890000001,1.61736263736264
60.4808960000016,1.97274725274725
60.5610020000003,1.62542124542125
60.6398990000002,1.29421245421245
60.7202850000001,1.32483516483516
60.8010199999996,1.33611721611722
60.8906570000015,1.38769230769231
60.9697419999987,1.41912087912088
61.0426070000008,1.37318681318681
61.1222580000013,1.3651282051282
61.2122459999993,1.45699633699634
61.2914530000016,1.82285714285714
61.3714109999985,1.94051282051282
61.4510430000015,1.28454212454212
61.5313339999989,1.34578754578755
61.610318,1.38124542124542
61.6905340000018,1.4207326007326
61.784061999999,1.50776556776557
61.8632340000011,1.42959706959707
61.9414539999999,1.50615384615385
62.0193590000011,1.63912087912088
62.0962659999989,2.04527472527473
62.1900599999987,1.53838827838828
62.2695009999983,1.32725274725275
62.3470410000011,1.3570695970696
62.4269519999996,1.36190476190476
62.5056099999994,1.40380952380952
62.5840390000008,1.5214652014652
62.6609230000004,1.45941391941392
62.7532600000016,1.35384615384615
62.8299789999984,1.49970695970696
62.9075879999995,1.78739926739927
62.9872250000015,1.85912087912088
63.0669759999998,1.23216117216117
63.145313000001,1.30065934065934
63.2255720000006,1.34739926739927
63.3206130000018,1.38446886446886
63.4003379999995,1.45538461538462
63.4796149999984,1.47391941391941
63.5566730000004,3.20813186813187
63.6371119999997,1.48117216117216
63.7171570000015,1.696336996337
63.7980909999982,2.28542124542125
63.8781330000013,1.30227106227106
63.9581649999991,1.41831501831502
64.0486290000007,1.43684981684982
64.1286449999996,1.44652014652015
64.2090300000012,1.56659340659341
64.2804549999982,1.50937728937729
64.3607569999993,1.49245421245421
64.4488550000004,1.5214652014652
64.529495000001,1.80593406593407
64.6087329999991,1.89377289377289
64.6970229999982,1.27245421245421
64.7697159999982,1.34498168498168
64.8573000000007,1.35223443223443
64.9293869999982,1.38043956043956
65.0103350000009,1.4207326007326
65.1035219999999,1.38205128205128
65.1751409999989,1.47150183150183
65.2555240000002,1.45216117216117
65.3358359999992,1.77369963369963
65.4154829999991,2.02512820512821
65.5037039999999,1.3159706959707
65.5837769999988,1.36673992673993
65.6599670000002,1.36835164835165
65.7400610000007,1.41589743589744
65.8190500000007,1.48520146520147
65.8986079999991,1.4989010989011
65.9937890000008,3.20249084249084
66.074436999999,1.55047619047619
66.1543830000013,1.70681318681319
66.230629999999,2.2596336996337
66.3090119999982,1.3159706959707
66.3905289999992,1.33208791208791
66.4675500000007,1.33692307692308
66.5470159999989,1.3756043956044
66.6410350000001,1.44893772893773
66.7216059999987,1.42315018315018
66.7993379999995,3.21216117216117
66.9201070000008,1.47956043956044
66.9766039999984,1.63831501831502
67.0443590000011,2.15648351648352
67.1189849999994,1.23296703296703
67.1951169999987,1.30710622710623
67.2897960000001,1.34820512820513
67.3687010000013,1.37479853479853
67.4488969999999,1.52307692307692
67.5279860000014,1.47311355311355
67.6059340000004,1.92842490842491
67.6860599999987,1.49970695970696
67.7636279999986,1.76644688644689
67.8425320000015,2.08234432234432
67.9371790000014,1.29582417582418
68.018068,1.4207326007326
68.095995000001,1.41912087912088
68.1740989999995,1.43201465201465
68.2551119999997,1.46989010989011
68.3304670000002,1.47553113553114
68.4227140000015,3.20410256410256
68.5012769999988,1.43362637362637
68.5804349999987,1.62864468864469
68.6575920000002,2.20483516483516
68.7342859999984,1.28695970695971
68.8285210000016,1.3159706959707
68.9064230000004,1.34578754578755
68.9832259999998,1.27648351648352
69.0616099999994,1.35062271062271
69.1402230000012,1.41992673992674
69.2188559999988,1.73260073260073
69.3112749999985,1.45135531135531
69.3902419999987,1.60043956043956
69.4685500000007,2.14117216117216
69.548436999999,1.41267399267399
69.6268280000016,1.32483516483516
69.7056389999986,1.37641025641026
69.7861539999992,1.39897435897436
69.8665810000002,1.43604395604396
69.9612190000005,1.51582417582418
70.0408449999988,3.04937728937729
70.1207239999995,1.51824175824176
70.1956160000004,1.6552380952381
70.2722199999988,2.20483516483516
70.3638319999985,1.32241758241758
70.4426440000013,1.32241758241758
70.5222340000011,1.34095238095238
70.5982380000018,1.38043956043956
70.6759129999988,1.41509157509157
70.7731550000012,1.5174358974359
70.8662879999988,1.47311355311355
70.9297690000013,1.35223443223443
71.0112170000002,1.4207326007326
71.0890870000012,1.79868131868132
71.1693139999993,1.72857142857143
71.2477479999997,1.29824175824176
71.328175999999,1.33772893772894
71.4073209999986,1.36673992673993
71.4878440000005,1.42315018315018
71.5675320000015,1.48923076923077
71.6623469999991,1.4843956043956
71.7416330000013,3.19604395604396
71.823050999999,1.48117216117216
71.9016429999992,1.63912087912088
71.9802129999995,2.34827838827839
72.0591579999998,1.38930402930403
72.1389349999987,1.36190476190476
72.2170219999999,1.3756043956044
72.2974329999983,1.38527472527473
72.3760489999987,1.44732600732601
72.4690989999995,1.45216117216117
72.5488610000014,3.1952380952381
72.6291389999986,1.44893772893773
72.7085199999996,1.69230769230769
72.7888079999983,2.20161172161172
72.8657520000003,1.27326007326007
72.9425009999983,1.30227106227106
73.0372399999984,1.25714285714286
73.1158399999998,1.30549450549451
73.194311999999,1.40461538461538
73.2742459999994,1.44087912087912
73.3542820000015,3.19443223443223
73.435300999999,1.46747252747253
73.5143530000001,1.63912087912088
73.5976279999986,2.20967032967033
73.6776840000004,1.32967032967033
73.7579719999991,1.34095238095238
73.8384120000005,1.37238095238095
73.9189890000001,1.40300366300366
73.9988170000017,1.54483516483516
74.0877740000002,1.61010989010989
74.1683990000002,1.47553113553114
74.2489510000013,1.53355311355311
74.3201490000002,1.54967032967033
74.4002910000011,1.96388278388278
74.4878990000002,1.49648351648352
74.5674180000015,1.29421245421245
74.6481400000006,1.32564102564103
74.736256000001,1.34336996336996
74.8173520000018,1.38608058608059
74.889443,1.40461538461538
74.9691169999987,1.31758241758242
75.0578110000007,1.34981684981685
75.1388949999996,1.48600732600733
75.2121999999993,1.99772893772894
75.2998489999995,1.41347985347985
75.3798610000014,1.29985347985348
75.4598269999996,1.3756043956044
75.5395009999983,1.39897435897436
75.6202230000012,1.44410256410256
75.6951649999991,1.50695970695971
75.7863990000002,1.55611721611722
75.8641790000014,1.46021978021978
75.940131000001,1.56739926739927
76.0204070000015,2.16454212454212
76.1133619999997,1.47150183150183
76.1914010000005,1.36190476190476
76.2701209999993,1.35465201465201
76.3505249999985,1.37721611721612
76.4280540000014,1.40622710622711
76.5088220000006,1.49164835164835
76.5889120000005,1.4618315018315
76.6689459999986,1.43201465201465
76.7622049999982,1.52630036630037
76.8412109999992,1.88974358974359
76.9192179999985,1.66490842490842
76.9977820000015,1.2007326007326
77.0762540000007,1.24021978021978
77.1548839999996,1.29421245421245
77.24925,1.37318681318681
77.3274970000014,1.52549450549451
77.4066130000018,1.48681318681319
77.483436999999,1.43201465201465
77.5608370000012,1.51260073260073
77.6397569999993,1.85267399267399
77.7329019999988,1.90989010989011
77.8131689999998,1.30549450549451
77.8912520000003,1.37399267399267
77.9691059999987,1.49003663003663
78.0462369999997,1.49970695970696
78.1257049999982,1.56175824175824
78.2180199999996,1.43362637362637
78.2945639999993,1.63347985347985
78.3745929999985,1.63428571428571
78.4519609999992,2.03157509157509
78.5296490000002,1.49164835164835
78.6231429999992,1.28373626373626
78.7021009999998,1.3159706959707
78.7793339999989,1.32161172161172
78.8593530000001,1.36271062271062
78.9394609999992,1.48117216117216
79.0182609999999,1.3651282051282
79.0971590000019,1.2974358974359
79.1777019999996,1.45216117216117
79.2707520000003,1.75435897435897
79.3507360000014,1.90827838827839
79.4305639999993,1.29018315018315
79.5103740000017,1.34417582417582
79.5896290000007,1.36915750915751
79.6699539999999,1.41347985347985
79.7491950000003,1.49164835164835
79.8280980000012,1.49245421245421
79.9057639999986,3.20168498168498
79.9997619999982,1.57062271062271
80.0793909999989,1.75194139194139
80.1579239999987,2.33457875457875
80.2401629999988,1.33531135531136
80.3160890000016,1.33531135531136
80.3954180000015,1.35948717948718
80.4742100000009,1.35304029304029
80.553936999999,1.43765567765568
80.6502829999998,1.42959706959707
80.7283159999996,2.83985347985348
80.8066059999988,1.45860805860806
80.8844210000001,1.72615384615385
80.9792580000013,2.05333333333333
81.1375329999998,1.17252747252747
81.2083979999982,1.25794871794872
81.2804539999999,1.31435897435897
81.3438060000017,1.36351648351648
81.4102390000001,1.45457875457875
81.4687289999984,1.47391941391941
81.535756000001,3.19120879120879
81.614756000001,1.4578021978022
81.7026479999982,1.6181684981685
81.7822670000009,2.20564102564103
81.8622729999982,1.35465201465201
81.9433660000004,1.36271062271062
82.0149600000009,1.47391941391941
82.1027969999984,1.46505494505495
82.1829090000018,1.48600732600733
82.2556609999985,1.53919413919414
82.342756000001,1.45054945054945
82.4221799999997,1.50937728937729
82.5027410000004,1.5359706959707
82.5798979999982,1.95018315018315
82.6593539999984,1.5174358974359
82.7555029999986,1.27326007326007
82.8280949999988,1.3240293040293
82.9078579999991,1.32886446886447
82.9882659999989,1.27648351648352
83.0684479999989,1.34175824175824
83.1473559999988,1.5585347985348
83.2278440000005,1.41267399267399
83.3155700000003,1.56336996336996
83.395807,2.06461538461538
83.4756530000009,1.39655677655678
83.5557170000002,1.33208791208791
83.6353139999993,1.39897435897436
83.7122170000002,1.40058608058608
83.8052129999995,1.45135531135531
83.8842699999995,1.49809523809524
83.9621259999983,1.60769230769231
84.041629999999,1.58190476190476
84.1209679999985,1.64153846153846
84.198313000001,2.09120879120879
84.2929510000013,1.42879120879121
84.3707060000002,1.31435897435897
84.4459780000001,1.32241758241758
84.5255249999985,1.35626373626374
84.6043079999983,1.40380952380952
84.6840280000009,1.51340659340659
84.7758920000009,1.49003663003663
84.8504499999993,1.38285714285714
84.928243999999,1.50454212454212
85.0078579999991,1.71648351648352
85.1032619999982,1.62945054945055
85.1694409999996,1.23216117216117
85.2605650000013,1.31032967032967
85.3406030000001,1.34901098901099
85.4214180000015,1.41912087912088
85.5001319999993,1.52468864468864
85.5798869999982,1.50695970695971
85.6575960000008,3.16864468864469
85.7381220000014,1.50937728937729
85.8171920000017,1.7640293040293
85.9122919999994,2.23545787545788
85.9918640000001,1.40542124542125
86.070313000001,1.42879120879121
86.1504750000015,1.40380952380952
86.2295350000002,1.41347985347985
86.3060729999989,1.52710622710623
86.3871970000006,1.45619047619048
86.4666640000008,1.98483516483516
86.5617639999986,1.45619047619048
86.6405399999991,1.70600732600733
86.7270040000007,2.04688644688645
86.7985549999997,1.25472527472527
86.8767950000018,1.3159706959707
86.9549800000004,1.33450549450549
87.0328339999989,1.33289377289377
87.1128469999991,1.41992673992674
87.2062910000011,1.41831501831502
87.287568,3.2032967032967
87.3648969999999,1.44249084249084
87.4452030000016,1.62542124542125
87.525370000001,2.2185347985348
87.605004999999,1.32644688644689
87.6834670000002,1.34820512820513
87.7622960000001,1.36673992673993
87.8421160000004,1.3981684981685
87.9375520000011,1.46102564102564
88.0166959999986,1.61897435897436
88.0947879999988,1.71164835164835
88.1736259999983,1.52227106227106
88.2534609999992,1.60043956043956
88.3334160000011,2.10249084249084
88.4113090000004,1.38688644688645
88.4915969999991,1.25956043956044
88.5699180000015,1.32644688644689
88.6636169999987,1.34417582417582
88.7440480000004,1.41025641025641
88.8216469999999,1.41992673992674
88.9019620000012,3.20410256410256
88.9782609999999,1.32967032967033
89.0561279999986,1.5174358974359
89.1363920000009,2.15326007326007
89.2304459999986,1.2418315018315
89.3084730000012,1.27970695970696
89.3881169999987,1.35223443223443
89.4686680000015,1.38688644688645
89.5480850000009,1.44168498168498
89.6283449999988,1.48761904761905
89.7079329999983,1.75758241758242
89.7866750000007,1.47311355311355
89.8662870000005,1.58029304029304
89.9472820000015,2.1178021978022
90.0263729999997,1.50534798534799
90.1068610000014,1.38769230769231
90.2033640000001,1.3981684981685
90.2816160000004,1.39413919413919
90.3624499999993,1.42556776556777
90.4421070000008,1.47956043956044
90.5217039999999,1.45538461538462
90.6022820000015,3.20168498168498
90.6794030000009,1.45054945054945
90.7593110000007,1.66652014652015
90.8391389999986,2.22095238095238
90.9178909999989,1.28373626373626
91.0132349999994,1.1967032967033
91.0920419999994,1.25230769230769
91.1718289999999,1.32805860805861
91.2515480000004,1.3981684981685
91.3296469999999,1.48761904761905
91.407563000001,1.48681318681319
91.4873599999994,1.50857142857143
91.5663949999996,1.58351648351648
91.646129999999,2.05575091575092
91.7410350000002,1.47794871794872
91.8205729999989,1.31919413919414
91.9000909999982,1.38769230769231
91.9807120000012,1.4989010989011
92.0592230000012,1.53194139194139
92.1393969999999,1.58432234432234
92.2189589999989,1.46505494505495
92.2965689999983,1.50615384615385
92.3766220000014,1.51098901098901
92.4688359999992,1.90989010989011
92.5467430000007,1.54967032967033
92.6255540000014,1.27084249084249
92.7046920000017,1.29985347985348
92.7844310000017,1.32725274725275
92.8640020000003,1.38285714285714
92.9414789999984,1.45054945054945
93.0352580000013,1.34417582417582
93.1122369999997,3.12754578754579
93.1889409999996,1.4167032967033
93.2670370000005,1.65684981684982
93.3612650000006,2.17824175824176
93.4409549999982,1.3159706959707
93.5208359999992,1.36835164835165
93.6005819999985,1.40380952380952
93.6799899999984,1.43604395604396
93.7577030000016,1.49728937728938
93.8359499999993,1.48842490842491
93.9270159999989,3.21538461538462
94.0064140000008,1.58915750915751
94.0844079999998,1.8010989010989
94.1632410000004,2.37487179487179
94.2423429999985,1.31194139194139
94.322129999999,1.32322344322344
94.4024519999996,1.33450549450549
94.4820219999999,1.35142857142857
94.5757800000012,1.42959706959707
94.6560980000012,1.36029304029304
94.7366909999996,1.45699633699634
94.8132329999991,1.49648351648352
94.8924620000012,1.96307692307692
94.9736409999989,1.37802197802198
95.0497069999985,1.21684981684982
95.129875,1.26681318681319
95.2099620000012,1.33289377289377
95.288936999999,1.38849816849817
95.3849400000013,1.43362637362637
95.4641999999993,1.74227106227106
95.5421750000007,1.42556776556777
95.6205799999982,1.57465201465201
95.7007760000005,2.07025641025641
95.779807,1.39252747252747
95.8571550000012,1.33450549450549
95.9518920000009,1.35465201465201
96.0284699999988,1.52549450549451
96.1084869999997,1.52791208791209
96.1883790000007,1.53194139194139
96.2682309999987,1.79062271062271
96.3478200000003,1.58271062271062
96.4279059999995,1.65362637362637
96.5079420000017,2.13472527472527
96.587631000001,1.37721611721612
96.6684609999992,1.27567765567766
96.8052060000002,1.29260073260073
96.8656259999983,1.31758241758242
96.9302280000001,1.43765567765568
97.0001110000014,1.26761904761905
97.0799759999998,1.25311355311355
97.1596140000001,1.38688644688645
97.2357580000013,1.77047619047619
97.3288509999998,1.72212454212454
97.4083460000008,1.27406593406593
97.484879999999,1.35787545787546
97.5618009999991,1.39575091575092
97.6408630000018,1.43282051282051
97.7207820000015,1.49164835164835
97.8002910000011,1.42153846153846
97.8941279999986,1.47714285714286
97.9755009999983,1.63509157509158
98.0529809999988,2.16373626373626
98.1314880000018,1.54161172161172
98.2117710000016,1.38205128205128
98.2919109999984,1.36432234432234
98.3725359999984,1.36835164835165
98.4497360000014,1.39010989010989
98.5293819999993,1.45457875457875
98.6091840000004,1.39655677655678
98.7045689999983,1.44893772893773
98.7817149999998,1.50857142857143
98.858561999999,1.97516483516483
98.9375909999982,1.41428571428571
99.0156180000007,1.2232967032967
99.1098550000005,1.27970695970696
99.1892479999997,1.34578754578755
99.2703559999987,1.40622710622711
99.3492870000005,1.44490842490842
99.4306050000004,2.04849816849817
99.5095760000013,1.41428571428571
99.5887120000012,1.57304029304029
99.6691950000003,2.14117216117216
99.748800999999,1.38124542124542
99.8247089999989,1.33692307692308
99.9192069999985,1.39010989010989
99.9980359999985,1.48923076923077
100.076827,1.55047619047619
100.154394000001,1.51340659340659
100.231978999998,3.20410256410256
100.312002,1.46989010989011
100.391686000001,1.65120879120879
100.472315000001,2.21692307692308
100.564991,1.26600732600733
100.643309,1.29260073260073
100.723052999999,1.30710622710623
100.80232,1.3570695970696
100.880747000001,1.40380952380952
100.961386999998,1.40703296703297
101.038484999999,2.63838827838828
101.134993000001,1.34820512820513
101.213019000001,1.51904761904762
101.29334,2.10087912087912
101.370793000001,1.34336996336996
101.451124000002,1.35062271062271
101.527320999999,1.36835164835165
101.614,1.40864468864469
101.69416,1.47553113553114
101.775901999999,1.49567765567766
101.84857,1.72051282051282
101.935761999998,1.47553113553114
102.015509,1.72051282051282
102.104010000002,2.20080586080586
102.184423999999,1.45296703296703
102.264318999998,1.32805860805861
102.344717999998,1.34417582417582
102.416561999999,1.34578754578755
102.496201000001,1.39333333333333
102.584953000002,1.38688644688645
102.663811999999,3.1992673992674
102.74493,1.41106227106227
102.826434,1.64637362637363
102.906629000001,2.19274725274725
102.995329999998,1.16124542124542
103.069897999998,1.19912087912088
103.149155999999,1.26197802197802
103.228544,1.33047619047619
103.31682,1.43765567765568
103.397682999998,1.47553113553114
103.477644000001,3.19201465201465
103.548931000002,1.47875457875458
103.636868000001,1.70197802197802
103.716041999999,2.2
103.793022,1.33208791208791
103.888565000001,1.37479853479853
103.970741999999,1.40139194139194
104.046111000001,1.53758241758242
104.12323,1.55128205128205
104.203160999998,1.52871794871795
104.283480999999,3.18959706959707
104.362864999998,1.47069597069597
104.443798999999,1.69150183150183
104.521960999999,2.20886446886447
104.604988000002,1.26358974358974
104.695272999998,1.29824175824176
104.773247000001,1.31032967032967
104.849305,1.35384615384615
104.928605999999,1.45216117216117
105.006098999999,1.25794871794872
105.102852000002,1.30227106227106
105.180784000002,1.45860805860806
105.260300999999,1.91472527472527
105.340691,1.47230769230769
105.420101,1.30871794871795
105.500328000002,1.38124542124542
105.582055,1.40461538461538
105.661605,1.44974358974359
105.742103999998,1.46747252747253
105.822364,2.7367032967033
105.903081,1.45135531135531
105.983159000002,1.71970695970696
106.071739999998,2.26608058608059
106.152976,1.43201465201465
106.224381999999,1.38930402930403
106.305192000002,1.38769230769231
106.385772999998,1.38527472527473
106.465247000001,1.42637362637363
106.545052999999,1.42879120879121
106.633829999998,3.19362637362637
106.713885000002,1.4021978021978
106.793311999999,1.57062271062271
106.874921999998,2.12827838827839
106.953956999999,1.29260073260073
107.043103999998,1.22490842490842
107.122713,1.26358974358974
107.203484999999,1.33611721611722
107.282583999999,1.41267399267399
107.362618000001,1.4432967032967
107.443102000002,3.20410256410256
107.523162,1.4578021978022
107.597600000001,1.696336996337
107.686326000001,2.26769230769231
107.774013,1.29904761904762
107.855030999999,1.33450549450549
107.935476,1.36835164835165
108.005827,1.53919413919414
108.096432999998,1.60688644688645
108.177454,1.46666666666667
108.249397,1.52791208791209
108.328938999999,1.52307692307692
108.417923999999,1.97194139194139
108.493980999999,1.44813186813187
108.574585000001,1.2829304029304
108.654752999999,1.32805860805861
108.734379000001,1.33531135531136
108.822693,1.36673992673993
108.903493999999,1.41912087912088
108.975118999999,1.73501831501831
109.064758000001,1.29340659340659
109.144592,1.47311355311355
109.224701000001,2.00981684981685
109.296596999999,1.32886446886447
109.392682,1.31194139194139
109.473339000002,1.3425641025641
109.552544,1.39333333333333
109.620925999999,1.45538461538462
109.708999000002,1.48358974358974
109.797476,2.46029304029304
109.877710999999,1.47956043956044
109.949914999999,1.62139194139194
110.030254999999,2.30234432234432
110.110806000002,1.43443223443223
110.190443,1.35304029304029
110.270519000001,1.4021978021978
110.350471000001,1.38769230769231
110.430647,1.5214652014652
110.526383000001,1.46344322344322
110.598131999999,1.55531135531136
110.686153000001,1.44813186813187
110.767772999998,1.76483516483516
110.847015999999,1.90989010989011
110.919668000001,1.2603663003663
110.998826000001,1.19750915750916
111.079918000001,1.24505494505495
111.159651999999,1.30388278388278
111.240079,1.4618315018315
111.335778000001,1.44249084249084
111.415620999999,1.58351648351648
111.488780000001,1.50212454212454
111.569708000001,1.78659340659341
111.653534000002,2.02512820512821
111.725589000002,1.32483516483516
111.815702,1.37157509157509
111.895028000001,1.38608058608059
111.984488000002,1.50615384615385
112.055579999998,1.64717948717949
112.136480999999,1.5810989010989
112.215526000001,3.16461538461538
112.304063999999,1.50454212454212
112.377305,1.71728937728938
112.456102000002,2.15648351648352
112.543909000002,1.30227106227106
112.623375999998,1.31677655677656
112.703984999999,1.3425641025641
112.785888999999,1.35868131868132
112.872719000001,1.43443223443223
112.945366,1.44087912087912
113.026269000001,2.95992673992674
113.107388999999,1.34417582417582
113.194647,1.64879120879121
113.266133000001,2.14520146520147
113.346133000001,1.26600732600733
113.447129999999,1.32161172161172
113.511774999999,1.36029304029304
113.623276000001,1.41509157509157
113.678708999999,1.52630036630037
113.755743000001,1.48117216117216
113.835050000001,1.42959706959707
113.913477000002,1.49164835164835
114.009287999999,1.916336996337
114.086997000001,2.05494505494505
114.165679000001,1.39252747252747
114.247243999999,1.38446886446886
114.325421,1.37721611721612
114.405107000001,1.40058608058608
114.485162,1.44410256410256
114.563859000001,1.43765567765568
114.642962000001,3.20813186813187
114.722004999999,1.61172161172161
114.818138999999,1.74388278388278
114.895954999998,2.25479853479853
114.973962000001,1.29421245421245
115.053605999999,1.20153846153846
115.127153000001,1.23296703296703
115.220822000001,1.30388278388278
115.299414000001,1.36673992673993
115.379019000001,1.39736263736264
115.457451000001,2.91318681318681
115.537583000001,1.44087912087912
115.622568999998,1.61010989010989
115.69423,2.17260073260073
115.774291000001,1.3240293040293
115.870191,1.28051282051282
115.942464000002,1.35062271062271
116.031313999999,1.51824175824176
116.111155000001,1.62783882783883
116.184021000002,1.56014652014652
116.264142000001,1.45619047619048
116.351226,1.52791208791209
116.423328000002,1.82205128205128
116.504559,1.81721611721612
116.599605999999,1.28131868131868
116.680399999999,1.31435897435897
116.752065000001,1.32886446886447
116.840993999999,1.37238095238095
116.912335999999,1.4618315018315
117.001524,1.31113553113553
117.073741999999,1.33772893772894
117.154269000001,1.42637362637363
117.234256000001,1.85186813186813
117.313949999999,1.5851282051282
117.402464000002,1.29663003663004
117.489931000002,1.35465201465201
117.561528000001,1.39413919413919
117.642353,1.43846153846154
117.719763,1.56901098901099
117.798872000001,1.5770695970696
117.892243000001,1.46263736263736
117.967734000001,1.55611721611722
118.053969999999,2.02835164835165
118.12607,1.90666666666667
118.204984000001,1.35142857142857
118.298973000001,1.36754578754579
118.374213,1.35948717948718
118.454824000001,1.38608058608059
118.534655000001,1.40864468864469
118.613118000001,1.67135531135531
118.693335999999,1.44007326007326
118.770802999999,1.54
118.865388,2.08637362637363
118.943355999999,1.32886446886447
119.021324000001,1.19912087912088
119.099155000001,1.27567765567766
119.175673,1.30227106227106
119.270252999999,1.38043956043956
119.348789000001,1.41186813186813
119.425166999999,3.1992673992674
119.503739,1.44087912087912
119.580960999999,1.64798534798535
119.671037999999,2.27252747252747
119.749605999999,1.3240293040293
119.830055,1.32967032967033
119.919272999998,1.35787545787546
119.990245999999,1.50776556776557
120.078708999999,1.58029304029304
120.151140000001,1.61413919413919
120.239284000002,1.51663003663004
120.311162,1.51501831501831
120.399272999998,1.53838827838828
120.478723999999,1.98886446886447
120.551682,1.40945054945055
120.638973000001,1.28615384615385
120.719589000002,1.30710622710623
120.807982000001,1.33289377289377
120.880502999999,1.38043956043956
120.968423,1.41992673992674
121.039925999999,1.28051282051282
121.120598999999,3.20652014652015
121.20025,1.35545787545788
121.287761,1.61091575091575
121.368094999999,2.28703296703297
121.448127999999,1.256336996337
121.528368000001,1.29824175824176
121.615631999999,1.37802197802198
121.696070999999,1.40864468864469
121.773804000001,1.52871794871795
121.852739999998,1.52227106227106
121.930953000002,1.38043956043956
122.010495999999,1.6632967032967
122.104039000001,1.99531135531136
122.1815,1.90666666666667
122.262340999998,1.35384615384615
122.341664000001,1.3756043956044
122.421835999999,1.36351648351648
122.502741,1.37641025641026
122.578072000001,1.42153846153846
122.658173,1.43201465201465
122.738019000001,3.1952380952381
122.832113000002,1.40380952380952
122.911662999999,1.58754578754579
122.991971000001,2.05978021978022
123.069379999999,1.16124542124542
123.148443999998,1.2152380952381
123.228221999999,1.27648351648352
123.308280000001,1.35545787545788
123.388120999999,1.43684981684982
123.469342,1.5585347985348
123.548596000001,1.53516483516484
123.630366999999,1.46505494505495
123.709953000002,1.53919413919414
123.790765000001,1.85912087912088
123.870280000001,1.95582417582418
123.966596999999,1.29582417582418
124.03925,1.45135531135531
124.119473999999,1.4618315018315
124.199153999999,1.47069597069597
124.287328000002,1.53274725274725
124.367919,1.42879120879121
124.448267999999,1.4803663003663
124.519899999999,1.50454212454212
124.607750999998,1.92761904761905
124.688022999998,1.47150183150183
124.761022999998,1.2643956043956
124.857734000001,1.32725274725275
124.938346000001,1.32805860805861
125.018482999999,1.22813186813187
125.099083999999,1.30871794871795
125.169800999999,1.37318681318681
125.258443999998,1.87040293040293
125.338215,1.44813186813187
125.418815000001,1.73098901098901
125.489493000001,2.11699633699634
125.578607000001,1.32
125.657313000001,1.36271062271062
125.737024,1.3756043956044
125.817213,1.42637362637363
125.896412999999,1.48923076923077
125.988884,1.60124542124542
126.067723999999,3.20007326007326
126.14675,1.56739926739927
126.225300999999,1.6778021978022
126.304181000002,2.24271062271062
126.384392999999,1.32725274725275
126.463570999999,1.29663003663004
126.542454,1.34336996336996
126.638010000002,1.33047619047619
126.719390000001,1.41428571428571
126.798469999999,1.41106227106227
126.875638,1.47150183150183
126.953629999999,1.45216117216117
127.031456999999,1.66893772893773
127.124309999999,1.81641025641026
127.203318,1.21684981684982
127.279239999998,1.28373626373626
127.356061999999,1.31758241758242
127.447897,1.36190476190476
127.526800000001,1.48278388278388
127.598327,1.46908424908425
127.677384,1.52468864468864
127.758328000002,1.49245421245421
127.83884,1.7640293040293
127.920590999998,2.00820512820513
128.006670000002,1.44732600732601
128.086409000002,1.47714285714286
128.166897,1.45941391941392
128.246635000002,1.45619047619048
128.326142999999,1.53919413919414
128.406111000001,1.48923076923077
128.494524,2.24754578754579
128.582612,1.49245421245421
128.662436000001,1.72212454212454
128.734692000002,2.12827838827839
128.823563999999,1.31032967032967
128.903509,1.34095238095238
128.983175000001,1.30791208791209
129.064800000001,1.25230769230769
129.144829,1.40300366300366
129.224423999999,1.39897435897436
129.296945999999,1.41186813186813
129.386048,1.49164835164835
129.465024999999,1.84783882783883
129.544659000002,1.86637362637363
129.624170000002,1.30227106227106
129.703954,1.36996336996337
129.784931000002,1.38930402930403
129.864105,1.41509157509157
129.958063000001,1.50051282051282
130.037081,1.56901098901099
130.118004999999,1.63912087912088
130.196791000001,1.60527472527473
130.276366999999,2.02673992673993
130.355123,1.47311355311355
130.437373,1.30549450549451
130.514280000001,1.32241758241758
130.593193,1.34175824175824
130.672796999998,1.36915750915751
130.766284000002,1.46505494505495
130.843636999998,1.42234432234432
130.921458000001,1.47794871794872
130.999745000001,1.36190476190476
131.078008000001,1.73421245421245
131.171171,1.48681318681319
131.249690000001,1.23457875457875
131.328203000002,1.29421245421245
131.405837000001,1.37399267399267
131.484467,1.43604395604396
131.577447000001,1.57948717948718
131.655250999998,1.54886446886447
131.736434,1.59238095238095
131.813232999999,1.55289377289377
131.892659000002,1.84139194139194
131.972206,2.04124542124542
132.052653999999,1.44410256410256
132.133627999999,1.46505494505495
132.212057,1.41267399267399
132.307892000001,1.42637362637363
132.388074000001,1.44410256410256
132.471653000001,1.60043956043956
132.54798,1.4167032967033
132.627519000001,1.50937728937729
132.704899999999,2.00498168498169
132.785469000001,1.32
132.863552999999,1.2603663003663
132.952445999999,1.31274725274725
133.031967999998,1.17978021978022
133.113278000001,1.25230769230769
133.190287,1.41992673992674
133.268995000001,1.38446886446886
133.345714000002,1.50937728937729
133.437778000001,1.51663003663004
133.515460000001,1.93487179487179
133.593846000001,1.62380952380952
133.673636,1.35384615384615
133.75425,1.36754578754579
133.832941,1.40300366300366
133.926590999998,1.45699633699634
134.006723000001,1.70681318681319
134.085833000001,1.64556776556777
134.163634,2.79311355311355
134.238647,1.73098901098901
134.319061999999,1.88571428571429
134.412184999999,2.20483516483516
134.489609000001,1.30952380952381
134.570342999998,1.31677655677656
134.646011999998,1.31838827838828
134.725726,1.31516483516484
134.806199000001,1.41589743589744
134.886160999998,1.3796336996337
134.965171,2.68673992673993
135.059267000001,1.34739926739927
135.139440000001,1.64395604395604
135.219162,2.10490842490842
135.296234999999,1.21846153846154
135.371921,1.29582417582418
135.452241999999,1.33450549450549
135.530028999999,1.37882783882784
135.624669,1.45860805860806
135.704715,1.49245421245421
135.784635000002,3.20571428571429
135.864870000001,1.48358974358974
135.942469999999,1.68747252747253
136.022524999999,2.41274725274725
136.100818,1.41347985347985
136.180436999999,1.40380952380952
136.259103999998,1.39333333333333
136.339182999998,1.40139194139194
136.4335,1.43684981684982
136.513438999999,1.51904761904762
136.591316,1.39575091575092
136.669318999998,1.50776556776557
136.748756000001,1.50615384615385
136.828249000002,1.91150183150183
136.908752,1.53032967032967
136.987719000001,1.19589743589744
137.083754999999,1.20315018315018
137.162142999999,1.26923076923077
137.243232999999,1.36029304029304
137.320934999999,1.45377289377289
137.401039000001,1.47553113553114
137.480609000001,3.20168498168498
137.559708000001,1.50051282051282
137.637958999999,1.73179487179487
137.717936999999,2.33699633699634
137.811236000001,1.3014652014652
137.890620000001,1.32322344322344
137.971037999999,1.36673992673993
138.050355999999,1.54080586080586
138.129147,1.63186813186813
138.206440000001,1.55692307692308
138.283969999999,1.3981684981685
138.364188999999,1.51179487179487
138.457302999999,1.82930402930403
138.535811999999,1.73582417582418
138.614129000001,1.24747252747253
138.691147999998,1.29018315018315
138.784745000001,1.32322344322344
138.864124000002,1.35223443223443
138.944265000001,1.44813186813187
139.024199999999,1.29260073260073
139.104241,3.15010989010989
139.185215999998,1.37721611721612
139.263892999999,1.62703296703297
139.343905000001,2.16615384615385
139.424384,1.29098901098901
139.504651999999,1.3610989010989
139.584107000001,1.39333333333333
139.663140000001,1.46424908424908
139.742809,1.50857142857143
139.821026999999,1.56820512820513
139.917421,1.67054945054945
139.996989,1.61172161172161
140.075927000001,1.77289377289377
140.154824999999,2.24754578754579
140.235802000001,1.50212454212454
140.314386,1.28937728937729
140.392169,1.32161172161172
140.470719000001,1.30952380952381
140.551894000001,1.40300366300366
140.632041999999,1.39333333333333
140.726940000001,1.2418315018315
140.806712000001,1.45699633699634
140.886548,1.87604395604396
140.964787,1.60446886446886
141.044954999998,0.983150183150183
141.124447999999,1.09194139194139
141.205083999999,1.17413919413919
141.28516,1.32564102564103
141.363635000002,1.36996336996337
141.443458000001,1.34417582417582
141.522636999998,1.53113553113553
141.618114,2.10249084249084
141.696184,1.49003663003663
141.771671999998,1.25714285714286
141.851824999999,1.35545787545788
141.930353999998,1.40380952380952
142.008962000001,1.57304029304029
142.103241999999,1.88893772893773
142.183208000001,1.57062271062271
142.261873,1.65201465201465
142.357037999999,2.21772893772894
142.420875,1.29340659340659
142.503603999998,1.20959706959707
142.575914000001,1.28131868131868
142.66927,1.30630036630037
142.748864,1.41831501831502
142.826517000001,1.41831501831502
142.903962000001,1.28534798534799
142.983089000002,1.45941391941392
143.061414000001,1.78417582417582
143.152548999999,1.53113553113553
143.232166999999,1.18945054945055
143.310300999999,1.2829304029304
143.388513999999,1.34739926739927
143.469473000001,1.41589743589744
143.547668000001,1.50534798534799
143.630541000001,1.48761904761905
143.710649999999,2.9978021978022
143.790397999998,1.51985347985348
143.878612,1.63992673992674
143.966548999999,2.29428571428571
144.047338,1.476336996337
144.127458999999,1.4247619047619
144.199351,1.41589743589744
144.279238000002,1.41428571428571
144.367335999999,1.43765567765568
144.438969999999,1.44087912087912
144.526278999999,1.54241758241758
144.598195999999,1.49648351648352
144.686333999999,1.30952380952381
144.767588,1.48278388278388
144.846938000001,1.76886446886447
144.927601,2.13553113553114
145.015217,1.0774358974359
145.09568,1.12578754578755
145.175872000001,1.18864468864469
145.256131000001,1.29018315018315
145.336552999999,1.37318681318681
145.407776000001,1.50454212454212
145.495975000001,1.53435897435897
145.582057,2.12344322344322
145.653999000002,1.53113553113553
145.735351,1.63428571428571
145.815385000002,2.21450549450549
145.894658,1.37721611721612
145.974954999998,1.30065934065934
146.067936000001,1.48923076923077
146.146717999998,1.48842490842491
146.227579,1.5029304029304
146.307817000002,1.49728937728938
146.388158,1.55531135531136
146.476585999999,1.5174358974359
146.556261999998,1.32564102564103
146.636620999999,1.47391941391941
146.707789000001,1.77692307692308
146.787488000002,2.12586080586081
146.867550999999,1.16205128205128
146.948526000001,1.24505494505495
147.028934999999,1.09758241758242
147.109021000002,1.19589743589744
147.205127999999,1.31355311355311
147.28577,1.43282051282051
147.356465,1.48278388278388
147.444008000001,3.19443223443223
147.525177000001,1.50615384615385
147.607287999999,1.65282051282051
147.686160999998,2.29025641025641
147.764306000002,1.33450549450549
147.844353999998,1.30468864468864
147.924454,1.35384615384615
148.003769000001,1.50937728937729
148.085397,1.58996336996337
148.163487,1.57626373626374
148.242381999999,1.64234432234432
148.338699000001,1.58754578754579
148.418059,1.29904761904762
148.495017000001,1.53194139194139
148.574202,1.78981684981685
148.655094000001,2.00336996336996
148.737691,1.14190476190476
148.814901999999,1.23216117216117
148.894460999999,1.26761904761905
148.974585999999,1.30871794871795
149.05368,1.25875457875458
149.132425999999,1.34739926739927
149.228050999999,1.40783882783883
149.308181000002,2.42080586080586
149.386225000002,1.48197802197802
149.46627,1.61978021978022
149.546752,2.17340659340659
149.627265000001,1.43040293040293
149.704296999998,1.32886446886447
149.784517000001,1.36593406593407
149.862373,1.39978021978022
149.944098999999,1.43523809523809
150.037024999999,1.64234432234432
150.117107999999,1.67377289377289
150.195423,1.6367032967033
150.273123,3.20732600732601
150.351418000001,1.56336996336996
150.428535999998,1.66652014652015
150.523877999999,2.24351648351648
150.602162,1.28695970695971
150.681795000002,1.25472527472527
150.76168,1.26358974358974
150.842420000002,1.29179487179487
150.920258000001,1.33128205128205
151.000388,1.29098901098901
151.079552999999,1.35465201465201
151.157311000001,1.3756043956044
151.252486000001,1.27487179487179
151.332618000001,1.48842490842491
151.411588,1.8010989010989
151.491465999998,2.07589743589744
151.571372000001,1.34417582417582
151.645579999998,1.38446886446886
151.734699000001,1.40945054945055
151.814509,1.45699633699634
151.886407000002,1.51340659340659
151.967070999999,1.56175824175824
152.055131000001,1.74952380952381
152.137868999999,3.19846153846154
152.216191,1.82205128205128
152.294916999999,1.87765567765568
152.383756999999,2.33377289377289
152.455738000002,1.41186813186813
152.535386999998,1.3570695970696
152.615765000001,1.30388278388278
152.695289000001,1.26600732600733
152.776011999998,1.31516483516484
152.863640000001,1.35626373626374
152.953261,1.39333333333333
153.025002999999,3.20007326007326
153.106237,1.27567765567766
153.186670000002,1.49567765567766
153.265364999998,2.0767032967033
153.345567000002,1.25472527472527
153.425215999998,1.30065934065934
153.505515000001,1.33128205128205
153.596941,1.3796336996337
153.677259,1.43523809523809
153.754838,1.46908424908425
153.835962000001,3.18637362637363
153.922241,1.46102564102564
154.002647999998,1.76322344322344
154.075806000002,2.39179487179487
154.155890999999,1.38849816849817
154.238068999998,1.34820512820513
154.315852000002,1.36029304029304
154.395901999999,1.36351648351648
154.492247000001,1.36351648351648
154.571656,2.18952380952381
154.652432999998,1.38688644688645
154.723363000002,1.51904761904762
154.812964000002,2.05172161172161
154.892625,1.26117216117216
154.972600000001,1.24021978021978
155.052971999999,1.12901098901099
155.133662999999,1.19589743589744
155.213254999999,1.27970695970696
155.293502999999,2.3047619047619
155.373767000001,1.39897435897436
155.453543000001,1.58190476190476
155.533960000001,2.16937728937729
155.612625,1.31435897435897
155.705138,1.31838827838828
155.786339000002,1.35062271062271
155.864050000001,1.43120879120879
155.942213,1.43201465201465
156.022513,3.20652014652015
156.099267000001,1.61252747252747
156.178022999998,1.823663003663
156.273508000001,2.34505494505495
156.352431000002,1.28454212454212
156.431182,1.32725274725275
156.510497000001,1.34578754578755
156.589943,1.38849816849817
156.668989,1.38124542124542
156.748164000001,3.20007326007326
156.827480999999,1.43362637362637
156.90748,1.68102564102564
156.988543000001,2.20241758241758
157.067522999998,1.10644688644689
157.163348000001,1.16608058608059
157.242969,1.2192673992674
157.318817000002,1.32483516483516
157.398647999998,1.48117216117216
157.475155999999,1.46021978021978
157.555362,3.05179487179487
157.638186999999,1.5029304029304
157.725965999998,1.74952380952381
157.798568,2.27575091575092
157.886765000001,1.34175824175824
157.966923999999,1.35223443223443
158.039506000001,1.52549450549451
158.120052000001,1.5440293040293
158.216403000001,1.55369963369963
158.287824999999,1.57626373626374
158.375712000001,1.52630036630037
158.447719999999,1.48681318681319
158.527524999999,1.52791208791209
158.616,1.98805860805861
158.687684999999,1.45941391941392
158.769487,1.29018315018315
158.849234999999,1.2974358974359
158.948127,1.3240293040293
159.038931000002,1.24102564102564
159.094293000001,1.36835164835165
159.172818999998,1.34820512820513
159.268653000001,1.80512820512821
159.341015999999,1.45457875457875
159.428794,1.7559706959707
159.508291999999,2.23062271062271
159.587838,1.26923076923077
159.668607000001,1.32725274725275
159.74798,1.34901098901099
159.826857999999,1.39413919413919
159.906993000001,1.45216117216117
159.984973000001,1.5585347985348
160.078998,1.6447619047619
160.156934,1.67860805860806
160.238434999999,2.15084249084249
160.311169,1.4618315018315
160.390951000001,1.24263736263736
160.468840999998,1.30791208791209
160.563502999999,1.3240293040293
160.642688999999,1.45941391941392
160.71991,1.38930402930403
160.799353,1.32886446886447
160.876331999999,1.46424908424908
160.956066,1.78336996336996
161.035008000001,1.8978021978022
161.130579999998,1.08388278388278
161.210738000002,1.20798534798535
161.29059,1.28454212454212
161.370508000001,1.35948717948718
161.451436000001,1.41267399267399
161.531559,3.19765567765568
161.610541000001,1.48600732600733
161.687774999999,1.65201465201465
161.767993000001,2.3232967032967
161.849291000001,1.2829304029304
161.927399999998,1.29018315018315
162.022124000002,1.45296703296703
162.101272,1.54725274725275
162.176761,1.58432234432234
162.255085999999,1.53435897435897
162.332171,2.54007326007326
162.410870999999,1.52871794871795
162.506171,1.76564102564103
162.585142000001,2.22981684981685
162.666311000001,1.22410256410256
162.744213,1.27245421245421
162.822920000002,1.29421245421245
162.902947000001,1.3159706959707
162.984013,1.38608058608059
163.063925000001,1.23619047619048
163.144614,3.19443223443223
163.22307,1.33692307692308
163.318316,1.53838827838828
163.397409000002,2.22498168498168
163.476384,1.31516483516484
163.553122000001,1.3240293040293
163.630017999999,1.34336996336996
163.710488000002,1.39091575091575
163.790434999999,1.46505494505495
163.87041,1.53194139194139
163.9635,1.53919413919414
164.043282000002,1.83978021978022
164.123473999999,1.68021978021978
164.202188000001,1.86556776556777
164.282603,2.21934065934066
164.360395,1.3240293040293
164.437995000001,1.32080586080586
164.531785,1.32725274725275
164.610874000002,1.35223443223443
164.690284000002,1.40622710622711
164.769033,1.48278388278388
164.845989999998,1.44974358974359
164.922504999999,1.50373626373626
165.016074999999,1.41347985347985
165.097008000001,1.78014652014652
165.174372000001,1.41589743589744
165.254495000001,1.22410256410256
165.331565000001,1.31838827838828
165.412284000002,1.35787545787546
165.491772,1.39897435897436
165.572021000002,1.51340659340659
165.650798,1.46505494505495
165.745633000001,1.57787545787546
165.825625999998,1.58915750915751
165.904756000001,1.95985347985348
165.985114,1.65684981684982
166.064388999999,1.51018315018315
166.160486000001,1.47230769230769
166.224662,1.43443223443223
166.302934,1.45135531135531
166.381664999999,1.47472527472527
166.473818,1.46344322344322
166.553923999999,3.17992673992674
166.628978999998,1.47956043956044
166.707502,1.70278388278388
166.786363000002,2.22336996336996
166.867342999998,1.22007326007326
166.946734000001,1.256336996337
167.026741999999,1.11289377289377
167.122350000001,1.16608058608059
167.203458000001,1.23860805860806
167.280125999998,2.59084249084249
167.356916999999,1.40380952380952
167.436158,1.57948717948718
167.512719999999,2.16776556776557
167.608445999999,1.29260073260073
167.689035,1.29904761904762
167.768894000001,1.37318681318681
167.847504000001,1.41992673992674
167.927384,1.45216117216117
168.008057,2.08798534798535
168.087219000001,1.66813186813187
168.171493000001,1.73824175824176
168.246741,2.21289377289377
168.325809,1.39897435897436
168.404234000001,1.27648351648352
168.486212000001,1.32725274725275
168.578272999998,1.32886446886447
168.658002999999,1.40461538461538
168.738350000002,1.54241758241758
168.81782,1.43765567765568
168.895405999999,1.50212454212454
168.974261,2.00901098901099
169.053175000001,1.16043956043956
169.132715999998,1.06373626373626
169.213140999999,1.19750915750916
169.308838,1.2789010989011
169.387355999999,1.37157509157509
169.467022999998,1.77369963369963
169.546239,1.43523809523809
169.625300000001,1.58190476190476
169.705101,2.14761904761905
169.784013999999,1.37802197802198
169.863581,1.28454212454212
169.943414000001,1.34659340659341
170.021695999999,1.53274725274725
170.117973000001,1.6367032967033
170.198798,1.56498168498168
170.276548999999,1.66652014652015
170.356037,1.73824175824176
170.434776000001,2.05010989010989
170.512526000001,1.73824175824176
170.592478999998,1.3014652014652
170.673328000002,1.2829304029304
170.752254999999,1.27970695970696
170.84618,1.31516483516484
170.926171,1.43604395604396
171.006425000001,1.33208791208791
171.084625,3.1396336996337
171.162024999999,1.27487179487179
171.242743999999,1.53838827838828
171.322193999998,2.1814652014652
171.401747000001,1.26842490842491
171.479932999998,1.30549450549451
171.560737,1.3425641025641
171.646125,1.38930402930403
171.726204,1.47150183150183
171.806031,1.59479853479853
171.886055,1.56739926739927
171.966226,1.48761904761905
172.048296,1.73179487179487
172.142600000001,2.00739926739927
172.222947999999,2.00175824175824
172.295263,1.383663003663
172.382916999999,1.34820512820513
172.454629000001,1.34820512820513
172.543969000001,1.39413919413919
172.622888,1.41509157509157
172.702673,1.45860805860806
172.783579999998,1.55531135531136
172.855620000001,1.4618315018315
172.951454,1.53677655677656
173.034539999999,1.86234432234432
173.113522999998,1.30549450549451
173.185388999999,1.18864468864469
173.26548,1.25714285714286
173.370256999999,1.32483516483516
173.426101,1.3796336996337
173.530522999998,1.50373626373626
173.600914999999,1.51501831501831
173.670987,1.63267399267399
173.758032000002,1.56820512820513
173.830732999999,1.8156043956044
173.910449999999,2.13311355311355
173.999574999999,1.34901098901099
174.085833000001,1.51501831501831
174.164311999999,1.48600732600733
174.237408,1.47794871794872
174.317931000002,1.49728937728938
174.407228,1.48923076923077
174.477594999999,1.78417582417582
174.5645,1.49728937728938
174.652881999999,1.56981684981685
174.723965999998,1.97838827838828
174.813072000001,1.4167032967033
174.892399999999,1.30549450549451
174.969579999998,1.30065934065934
175.051903000001,1.18703296703297
175.123776000001,1.22249084249084
175.210934999999,1.36432234432234
175.291366999999,1.40300366300366
175.372208000001,1.8010989010989
175.459046999998,1.4989010989011
175.530559999999,1.73824175824176
175.610234000001,2.12989010989011
175.690537999999,1.34578754578755
175.785162999999,1.36271062271062
175.864932,1.39655677655678
175.945905000001,1.42153846153846
176.024078000002,1.6181684981685
176.103125,1.66893772893773
176.181311999999,3.20168498168498
176.257011999998,1.56981684981685
176.351956999999,1.69875457875458
176.432530999999,2.15406593406593
176.51193,1.32483516483516
176.590449000001,1.33289377289377
176.671699999999,1.32644688644689
176.748710000001,1.34336996336996
176.827530999999,1.43604395604396
176.908151999999,1.40945054945055
176.999574000001,1.31838827838828
177.078254999999,1.3240293040293
177.157204,1.68263736263736
177.236499000002,1.60849816849817
177.316818999998,1.26923076923077
177.397581999999,1.31838827838828
177.494026999999,1.35787545787546
177.580094999999,1.42798534798535
177.646581,1.46989010989011
177.765570999999,3.1952380952381
177.826879000001,1.49728937728938
177.886951000001,1.66168498168498
177.959118000001,2.11457875457875
178.039219999999,1.53758241758242
178.126706999999,1.52710622710623
178.206908,1.47472527472527
178.286199999999,1.44571428571429
178.374199000001,1.50454212454212
178.454464000002,1.38205128205128
178.526068,1.53355311355311
178.614318999998,1.5359706959707
178.695177999999,1.88571428571429
178.77318,1.49326007326007
178.852986000001,1.28937728937729
178.940160999998,1.30791208791209
179.02084,1.23135531135531
179.093517000001,1.28131868131868
179.181973000001,1.28212454212454
179.260765000001,1.3570695970696
179.333807999998,1.45538461538462
179.428916000001,1.77047619047619
179.509578000002,2.00820512820513
179.582379999999,1.33208791208791
179.659640999999,1.38849816849817
179.740070999999,1.40622710622711
179.833982999999,1.51098901098901
179.913429000001,1.47714285714286
179.991399,1.46666666666667
180.070644000001,1.75032967032967
180.151723999999,2.12424908424908
180.230381999999,1.60930402930403
180.307899,1.3756043956044
180.38741,1.37076923076923
180.482813999999,1.36432234432234
180.561859999999,1.41428571428571
180.641162,1.32322344322344
180.739989999998,1.40864468864469
180.800263999999,1.45619047619048
180.879653999999,1.90827838827839
180.957467,1.39010989010989
181.035120999999,1.10725274725275
181.130035999998,1.12498168498168
181.209083999999,1.22410256410256
181.284596999999,1.37157509157509
181.361899,1.29985347985348
181.439414000001,1.47714285714286
181.533318,1.52227106227106
181.612464000002,1.97516483516483
181.691159000002,1.50373626373626
181.769318999998,1.36190476190476
181.847017000001,1.40300366300366
181.927026000001,1.44168498168498
182.021184999999,1.65362637362637
182.098699000001,1.68989010989011
182.178761,2.17582417582418
182.257725000001,1.66490842490842
182.337192000002,1.87443223443223
182.414835999999,2.11860805860806
182.494543000001,1.25150183150183
182.574384,1.32886446886447
182.667384,1.30871794871795
182.746225000001,1.41186813186813
182.824353,1.39091575091575
182.904566,1.2829304029304
182.983192000002,1.41589743589744
183.063096999999,1.60285714285714
183.143046999998,1.61978021978022
183.222324999999,1.16849816849817
183.303063999999,1.26681318681319
183.381938999999,1.32080586080586
183.476831999999,1.37479853479853
183.553993999999,1.43765567765568
183.631620999999,1.67941391941392
183.709888999999,1.50212454212454
183.788541999999,1.59238095238095
183.867390999999,2.08234432234432
183.961385000002,1.41750915750916
184.038281,1.4843956043956
184.113864999998,1.51582417582418
184.193631000001,1.51501831501831
184.273162999999,1.5174358974359
184.367199000001,1.49567765567766
184.444807,2.96959706959707
184.524035,1.476336996337
184.602096000001,1.57868131868132
184.6825,2.16051282051282
184.761842999998,1.27809523809524
184.840613000002,1.25230769230769
184.920965999998,1.30952380952381
185.001596999999,1.29985347985348
185.096416999999,1.31919413919414
185.175912,1.31838827838828
185.255046,1.4432967032967
185.33559,1.43765567765568
185.416103999998,1.78578754578755
185.494947999999,2.05978021978022
185.574208999999,1.29421245421245
185.653991,1.36915750915751
185.735123,1.39575091575092
185.821647,1.42315018315018
185.893853,1.52952380952381
185.973679000001,1.49970695970696
186.064144000001,1.64717948717949
186.135464000002,1.68747252747253
186.231381999999,1.96388278388278
186.303659000002,1.79142857142857
186.383162999999,1.32725274725275
186.463208000001,1.30871794871795
186.551197999999,1.33208791208791
186.623491999999,1.37399267399267
186.702896000002,1.4989010989011
186.784149999999,1.44893772893773
186.864013999999,2.26608058608059
186.944495999999,1.49567765567766
187.025282000002,1.5770695970696
187.113182,1.93567765567766
187.193552999999,1.16446886446886
187.282647999998,1.26358974358974
187.353425999999,1.33692307692308
187.434668000001,1.3981684981685
187.513965999998,1.48520146520147
187.666291000001,1.50212454212454
187.785778000001,3.19201465201465
187.872787999999,1.5359706959707
187.928859000001,1.7043956043956
187.990263999999,2.32974358974359
188.047504999999,1.30065934065934
188.109263,1.45296703296703
188.165335000001,1.47230769230769
188.244195999999,1.46908424908425
188.321835999999,1.45296703296703
188.402337000001,3.1992673992674
188.496199000001,1.60205128205128
188.575296999998,1.73340659340659
188.655164999999,2.30959706959707
188.735026999999,1.22732600732601
188.812984000001,1.22087912087912
188.890328000002,1.25956043956044
188.982052999999,1.29340659340659
189.061186999999,1.15238095238095
189.139603999998,3.03164835164835
189.218048999999,1.28937728937729
189.295956,1.50534798534799
189.387420000002,2.14278388278388
189.468241,1.24586080586081
189.545524999999,1.27487179487179
189.624249000002,1.34417582417582
189.701695,1.41025641025641
189.778890000001,1.46989010989011
189.872011,1.51824175824176
189.947578000002,1.54564102564103
190.027339000002,1.72212454212454
190.105489999998,2.26043956043956
190.185673999999,1.60124542124542
190.263690000001,1.40461538461538
190.357625999998,1.38043956043956
190.436462000001,1.35868131868132
190.511616999999,1.45860805860806
190.588011999998,1.40461538461538
190.683305,1.76241758241758
190.762760000002,1.46102564102564
190.83882,1.70842490842491
190.916443,2.07509157509158
190.993482999999,1.26197802197802
191.088971999999,1.09919413919414
191.167442000002,1.163663003663
191.246484999999,1.2789010989011
191.327545000002,1.38608058608059
191.406820999999,1.35545787545788
191.487622000001,1.49084249084249
191.566203000002,1.5359706959707
191.652618000001,2.00336996336996
191.724864999998,1.5029304029304
191.805659000002,1.33450549450549
191.899844999999,1.33611721611722
191.978795000002,1.38849816849817
192.056368999999,1.62139194139194
192.135677999999,1.65846153846154
192.215432,1.63912087912088
192.293214000002,1.56095238095238
192.373477000002,1.57465201465201
192.451438999999,1.97758241758242
192.533263,1.43604395604396
192.624414000001,1.29904761904762
192.702339000002,1.3159706959707
192.782669,1.35545787545788
192.857969000001,1.38446886446886
192.951537999999,1.5174358974359
193.030054000001,1.35062271062271
193.106875,1.24102564102564
193.183958000001,1.40300366300366
193.260938000001,1.75435897435897
193.355304000001,1.76241758241758
193.434089000002,1.33208791208791
193.509541000001,1.39655677655678
193.588493000001,1.40622710622711
193.667372000001,1.44652014652015
193.761034000002,1.50534798534799
193.840719000001,1.73421245421245
193.921267000001,1.54322344322344
194.000129000001,1.61575091575092
194.078618999999,2.20564102564103
194.159866,1.58432234432234
194.239921,1.40622710622711
194.317544,1.40058608058608
194.396329999998,1.38769230769231
194.475903000001,1.50615384615385
194.56943,1.4392673992674
194.650715,1.37318681318681
194.735820999999,1.47472527472527
194.808982000001,1.8010989010989
194.886822000001,1.7189010989011
194.966362,1.27406593406593
195.044311000001,1.17897435897436
195.123146000002,1.17736263736264
195.202752999999,1.29582417582418
195.299653999999,1.33450549450549
195.37957,3.19443223443223
195.459806000002,1.46908424908425
195.539842999998,1.64153846153846
195.619170000002,2.16776556776557
195.699348000001,1.33289377289377
195.773041000001,1.36996336996337
195.850960999999,1.36593406593407
195.931452,1.41186813186813
196.026975000001,1.62461538461538
196.107087000001,1.67054945054945
196.187191,1.58029304029304
196.266585999999,1.57545787545788
196.343350000001,1.78739926739927
196.421960000001,1.94857142857143
196.499688999999,1.29179487179487
196.593813999999,1.30388278388278
196.672864999998,1.31355311355311
196.753338,1.35465201465201
196.827811999999,1.45054945054945
196.905969000001,1.34336996336996
196.984574999999,1.49809523809524
197.077535,1.3570695970696
197.156228,1.77450549450549
197.233684,1.37238095238095
197.309399,1.24827838827839
197.389353,1.32483516483516
197.483085999999,1.38608058608059
197.559338,1.44974358974359
197.639357000001,1.51179487179487
197.719526999999,1.72615384615385
197.798271000002,1.49567765567766
197.877094999999,1.59479853479853
197.957122000001,2.07509157509158
198.037353999998,1.55128205128205
198.132381999999,1.48278388278388
198.211853,1.49084249084249
198.292886,1.47311355311355
198.370695,1.5214652014652
198.451302000001,1.47150183150183
198.528624000002,1.48761904761905
198.607289999999,1.53194139194139
198.687214000002,1.95663003663004
198.776305,1.35948717948718
198.855846000001,1.22974358974359
198.934054000001,1.30388278388278
199.011004999999,1.31677655677656
199.090706999999,1.39010989010989
199.185197999999,1.36593406593407
199.265004000001,1.29985347985348
199.342021000002,1.46021978021978
199.421725000001,1.80190476190476
199.500947000001,1.78820512820513
199.581322999999,1.34095238095238
199.661940000001,1.39091575091575
199.750092,1.41106227106227
199.830079999998,1.44410256410256
199.902618000001,1.45457875457875
199.983017000001,2.72058608058608
200.062807999998,1.65040293040293
200.151962000001,1.74952380952381
200.232087000001,2.24915750915751
200.311278000001,1.38285714285714
200.400862,1.32644688644689
200.473585000001,1.3425641025641
200.552184999999,1.36190476190476
200.631668000001,1.41267399267399
200.711713,1.43846153846154
200.791884,3.1847619047619
200.881135000002,1.43765567765568
200.95259,1.62380952380952
201.049129000001,2.01465201465201
201.120559999999,1.10886446886447
201.208331,1.18703296703297
201.287964000002,1.25714285714286
201.368416999999,1.34981684981685
201.448120000001,1.44087912087912
201.528546999998,1.48600732600733
201.605631000001,3.19443223443223
201.686738000002,1.55047619047619
201.779008000001,1.69311355311355
201.862581,2.22417582417582
201.926795000002,1.35787545787546
202.008169,1.38124542124542
202.094495000001,1.56498168498168
202.174252999999,1.56981684981685
202.255210999999,1.63912087912088
202.334473000001,1.54080586080586
202.416085000001,1.40058608058608
202.494769000001,1.51582417582418
202.583670000002,1.84703296703297
202.655114999998,1.6592673992674
202.742504999999,1.25472527472527
202.823181000002,1.30871794871795
202.909927999999,1.32725274725275
202.983193999998,1.35545787545788
203.071655000001,1.29663003663004
203.152142999999,1.27648351648352
203.223778999999,1.3159706959707
203.315690000001,1.44490842490842
203.395267000001,1.81238095238095
203.474238000002,1.75355311355311
203.554499000002,1.33611721611722
203.634322000001,1.37157509157509
203.715344,1.40783882783883
203.794263,1.44087912087912
203.873655999999,1.57787545787546
203.950085999999,1.50857142857143
204.042364999998,1.54967032967033
204.121934,1.71648351648352
204.199491,1.95985347985348
204.279471999999,1.98725274725275
204.357778999999,1.38043956043956
204.438114,1.3570695970696
204.519609000001,1.35384615384615
204.598710000001,1.37238095238095
204.677204,1.4843956043956
204.756914000001,1.42879120879121
204.852780000001,1.32080586080586
204.927673,1.48197802197802
205.008506999999,1.83655677655678
205.087333000001,1.47069597069597
205.167265000001,1.12659340659341
205.247282000002,1.26358974358974
205.327653000001,1.32
205.406506000001,1.3981684981685
205.487936999999,1.44490842490842
205.566706,2.44739926739927
205.653627999999,1.51824175824176
205.735967999998,1.64234432234432
205.822522,2.1629304029304
205.904348000001,1.39010989010989
205.991131999999,1.36673992673993
206.061088,1.5585347985348
206.135026000001,1.5770695970696
206.230438999999,1.58432234432234
206.310309,1.52307692307692
206.390651000001,3.19201465201465
206.462324999999,1.45860805860806
206.551164999999,1.56659340659341
206.623203000002,2.07912087912088
206.703366,1.25875457875458
206.785035999998,1.27326007326007
206.878947000001,1.30952380952381
206.951103,1.33369963369963
207.030548,1.34981684981685
207.111199999999,1.32886446886447
207.190719999999,2.99135531135531
207.278234999999,1.44168498168498
207.350855999999,1.72615384615385
207.430708999999,2.21369963369963
207.510890000001,1.26520146520147
207.60534,1.32967032967033
207.685348000001,1.38849816849817
207.762465999998,1.47311355311355
207.843962000001,1.45457875457875
207.921949999999,3.20490842490842
208.003184,1.49326007326007
208.081596999999,1.87604395604396
208.159995999999,2.37648351648352
208.239941,1.35626373626374
208.320002,1.36673992673993
208.414035999998,1.38527472527473
208.494254000001,1.53919413919414
208.573806000002,1.5770695970696
208.654076000001,1.50454212454212
208.734322999999,1.48600732600733
208.811631999999,1.50454212454212
208.88991,1.95260073260073
208.969647999998,1.29098901098901
209.049366999999,1.06937728937729
209.142609000001,1.09194139194139
209.222168000001,1.18783882783883
209.300677999999,1.29904761904762
209.381635000002,1.36754578754579
209.460419,3.22747252747253
209.54034,1.46586080586081
209.629657000002,1.67054945054945
209.70993,2.28461538461538
209.782326000001,1.36029304029304
209.862544,1.36835164835165
209.942802999999,1.38285714285714
210.022866999999,1.4803663003663
210.103544,1.63509157509158
210.183833000001,1.61575091575092
210.271326000001,3.19120879120879
210.351011999998,1.54967032967033
210.432085999999,1.65443223443223
210.519596000001,2.19516483516483
210.600070999999,1.27406593406593
210.679704999998,1.27487179487179
210.751495999999,1.31758241758242
210.839772999998,1.32483516483516
210.911909000002,1.45538461538462
211.000254000001,1.42153846153846
211.080892999999,1.53838827838828
211.169581,1.32161172161172
211.249984000001,1.65443223443223
211.328929000001,1.97919413919414
211.409772,1.27728937728938
211.488905000001,1.36351648351648
211.569511,1.4021978021978
211.654033,1.44007326007326
211.72632,1.49809523809524
211.814958999999,1.50695970695971
211.894432,3.19443223443223
211.966952,1.55208791208791
212.056388,1.81318681318681
212.136686000001,2.4014652014652
212.216074999999,1.46424908424908
212.288355999999,1.40864468864469
212.376774,1.3610989010989
212.457293000001,1.36432234432234
212.537421999998,1.38527472527473
212.616550999999,1.50615384615385
212.695884,1.45377289377289
212.776158,1.3425641025641
212.856247000001,1.47553113553114
212.936088,1.7640293040293
213.016815000001,1.75919413919414
213.113134,1.05003663003663
213.185997000001,1.15238095238095
213.267811000001,1.24827838827839
213.344046999998,1.33208791208791
213.432660999998,1.45216117216117
213.512791999999,1.49326007326007
213.586274,3.19443223443223
213.677221000001,1.55934065934066
213.754916999999,1.72051282051282
213.834159000002,2.23304029304029
213.912603,1.38608058608059
213.990475000001,1.3796336996337
214.069226,1.56901098901099
214.164870999999,1.55934065934066
214.244318,1.53194139194139
214.324390000001,1.62139194139194
214.404271000002,1.53113553113553
214.486256000001,1.40864468864469
214.564831999999,1.55531135531136
214.644491,1.79142857142857
214.722272,1.82849816849817
214.800473000001,1.25714285714286
214.878795000002,1.28937728937729
214.958813000001,1.31032967032967
215.055057999998,1.20637362637363
215.133135000002,1.23296703296703
215.214041999999,1.28051282051282
215.293193999998,3.19846153846154
215.373618999999,1.41589743589744
215.453460000001,1.60769230769231
215.533449000001,2.20241758241758
215.614210999999,1.34578754578755
215.701614,1.38769230769231
215.774951000001,1.39494505494505
215.854916000001,1.44087912087912
215.992456999999,1.51018315018315
216.063556000002,1.54644688644689
216.118429000001,3.19765567765568
216.181699999999,1.67457875457875
216.260177000001,1.84380952380952
216.339715,2.22336996336996
216.420223999999,1.32967032967033
216.501421999998,1.33369963369963
216.580258000001,1.3385347985348
216.659333999999,1.32805860805861
216.748489,1.42234432234432
216.829502,1.40864468864469
216.917943999998,2.16131868131868
216.996851,1.4392673992674
217.070528999999,1.50212454212454
217.159317000002,1.87846153846154
217.232728999998,1.16285714285714
217.310607000001,1.26117216117216
217.403192000002,1.32
217.484041000001,1.39494505494505
217.563002,1.54805860805861
217.640427999999,1.51985347985348
217.720693,1.47714285714286
217.799234000001,1.56095238095238
217.877883000001,1.83736263736264
217.958063000001,2.00095238095238
218.037217,1.45860805860806
218.116855999999,1.54805860805861
218.209535,1.50776556776557
218.290127,1.50051282051282
218.365822000001,1.51098901098901
218.444092999998,2.06783882783883
218.521359999999,1.45538461538462
218.617320999999,1.57304029304029
218.696962000001,2.0396336996337
218.77523,1.29179487179487
218.853401999999,1.26117216117216
218.933644000001,1.33692307692308
219.008859999999,1.3610989010989
219.103998,1.3385347985348
219.183475000001,1.35787545787546
219.260425000001,3.20087912087912
219.340596999999,1.43443223443223
219.420436999999,1.6552380952381
219.500451000001,2.17260073260073
219.579511,1.30630036630037
219.658923999999,1.33772893772894
219.737022999998,1.37157509157509
219.818289999999,1.41106227106227
219.916317000002,1.48600732600733
219.994449999999,1.4989010989011
220.073938000001,3.1952380952381
220.152833000001,1.6778021978022
220.230313000001,1.81882783882784
220.310840999998,2.21934065934066
220.38773,1.30065934065934
220.466684,1.32805860805861
220.56168,1.33128205128205
220.641789000001,1.37479853479853
220.720184,1.42153846153846
220.799699999999,1.42315018315018
220.881182,3.20249084249084
220.956463,1.45457875457875
221.036313000001,1.56336996336996
221.114175999999,2.03076923076923
221.194136999998,1.15479853479853
221.28959,1.23135531135531
221.368817000002,1.32805860805861
221.447907000002,1.37802197802198
221.526243999999,1.51824175824176
221.604232000001,1.50373626373626
221.683098000001,1.47150183150183
221.773307999998,1.59641025641026
221.850883000001,1.93809523809524
221.925171999998,1.6632967032967
222.013061999999,1.34901098901099
222.092282000002,1.55692307692308
222.180967,1.55450549450549
222.253052999999,1.53758241758242
222.333245999999,1.59399267399267
222.412215999998,1.49567765567766
222.492726,1.68021978021978
222.572414000001,1.49245421245421
222.651964000002,1.72695970695971
222.732581999999,2.02029304029304
222.828870000001,1.25956043956044
222.900324000001,1.28857142857143
222.980245999999,1.32805860805861
223.068256999999,1.21846153846154
223.140787999999,1.26681318681319
223.229563000001,1.31435897435897
223.308769000001,3.20007326007326
223.388596999999,1.45538461538462
223.469076000001,1.65765567765568
223.548223000001,2.2451282051282
223.635302999999,1.32322344322344
223.707280999999,1.38446886446886
223.787456,1.40461538461538
223.866736000001,1.43604395604396
223.946528999999,1.57465201465201
224.040859000001,1.58432234432234
224.120949000001,1.58593406593407
224.201149999999,1.68424908424908
224.279256999999,1.95179487179487
224.358320999999,1.83413919413919
224.438215,1.30549450549451
224.518627,1.33450549450549
224.596811999999,1.34336996336996
224.676477000002,1.36673992673993
224.769914000001,1.48197802197802
224.846590999998,1.44652014652015
224.925379000001,1.30630036630037
225.002537,1.47230769230769
225.080278999999,1.57948717948718
225.173934999999,1.7189010989011
225.253824000001,1.19106227106227
225.333353999998,1.29179487179487
225.413098999999,1.3570695970696
225.493399999999,1.43040293040293
225.571116,1.52710622710623
225.650094999999,1.53274725274725
225.729813000001,3.19765567765568
225.808364999998,1.53435897435897
225.903293000001,1.72857142857143
225.981984000001,2.21289377289377
226.059328000002,1.47553113553114
226.136894000001,1.54161172161172
226.216684999999,1.5174358974359
226.296451000001,1.49245421245421
226.389719999999,1.54241758241758
226.469781,1.46586080586081
226.550434999999,2.78505494505494
226.630370000001,1.67457875457875
226.709813000001,1.8752380952381
226.789684,2.19838827838828
226.869901000001,1.29663003663004
226.949267000001,1.28454212454212
227.028504999999,1.23619047619048
227.107634,1.11047619047619
227.186916000001,1.2643956043956
227.267245000001,1.30065934065934
227.360829999998,2.19677655677656
227.441293000001,1.39575091575092
227.520721000001,1.68747252747253
227.600024,2.09846153846154
227.680524999999,1.30710622710623
227.761278999999,1.37076923076923
227.840706999999,1.40622710622711
227.920002999999,1.44410256410256
228.000153999999,1.48923076923077
228.076109000001,1.68747252747253
228.169905999999,3.20007326007326
228.248357999999,1.64395604395604
228.325664999999,1.74549450549451
228.403535,2.23545787545788
228.482219,1.29018315018315
228.576065000001,1.29260073260073
228.654567000002,1.30871794871795
228.733502,1.34095238095238
228.81316,1.40380952380952
228.893295000002,1.43362637362637
228.973026999999,2.75362637362637
229.050552999999,1.31919413919414
229.130657000002,1.43040293040293
229.210221000001,2.00175824175824
229.305311000001,1.2047619047619
229.383881999999,1.24908424908425
229.465085000001,1.33692307692308
229.542188000001,1.40380952380952
229.621478,1.53919413919414
229.709816,1.50695970695971
229.790561000001,1.60769230769231
229.863765000001,1.56417582417582
229.942434,1.79948717948718
230.040879000001,2.05333333333333
230.113256999999,1.50454212454212
230.194006000001,1.52791208791209
230.265868999999,1.50212454212454
230.353357999999,1.46747252747253
230.434837000001,1.54241758241758
230.507212000001,1.43684981684982
230.586300000001,1.54241758241758
230.682638999999,1.50534798534799
230.755721000001,1.75032967032967
230.843046,2.00739926739927
230.924752999999,1.26278388278388
231.003395,1.29582417582418
231.077311999999,1.17091575091575
231.165859999999,1.22893772893773
231.245682999998,1.36996336996337
231.317782000002,1.39252747252747
231.405478,2.77860805860806
231.47693,1.4843956043956
231.557362,1.75838827838828
231.654357000001,2.27575091575092
231.734103,1.31113553113553
231.808761,1.3651282051282
231.887386999998,1.39010989010989
231.975475000001,1.42798534798535
232.051118999999,1.55369963369963
232.131588,2.46351648351648
232.211452,1.62542124542125
232.291263,1.68908424908425
232.378848000001,2.22014652014652
232.450903000001,1.34739926739927
232.531283,1.27648351648352
232.611315000001,1.32241758241758
232.699850000002,1.33772893772894
232.776886999998,1.38285714285714
232.857258000001,1.40461538461538
232.937912999999,2.33619047619048
233.025396000002,1.42556776556777
233.097239,1.36351648351648
233.185228999998,1.93809523809524
233.257879000001,1.18380952380952
233.345881999999,1.22571428571429
233.425022,1.30630036630037
233.513579,1.37399267399267
233.585927000001,1.44410256410256
233.678822999999,1.53516483516484
233.760489,1.4843956043956
233.835702,1.59641025641026
233.915223000001,1.60688644688645
233.994381999999,2.07831501831502
234.074140000001,1.68424908424908
234.152771000002,1.49567765567766
234.232153000001,1.4843956043956
234.311004999999,1.4618315018315
234.406848999999,1.4618315018315
234.490370999999,1.44571428571429
234.563682999998,3.20893772893773
234.641511999998,1.4392673992674
234.721633000001,1.58754578754579
234.798840999998,2.15164835164835
234.890098000001,1.21684981684982
234.968989999998,1.28212454212454
235.050114,1.29663003663004
235.128568,1.27406593406593
235.209175000001,1.35223443223443
235.289034000002,1.40300366300366
235.367383000001,3.20732600732601
235.447388999999,1.46102564102564
235.525818999998,1.68747252747253
235.621184,2.20241758241758
235.700440000001,1.30388278388278
235.778947999999,1.34820512820513
235.858897999998,1.383663003663
235.939357000001,1.43846153846154
236.019657000002,1.49809523809524
236.098223000001,1.66007326007326
236.174901999999,3.20490842490842
236.268798999999,1.57868131868132
236.346535,1.7189010989011
236.42502,2.263663003663
236.502666999999,1.28131868131868
236.578592999998,1.30227106227106
236.659112,1.32886446886447
236.752704,1.36915750915751
236.834638,1.46263736263736
236.911813999999,1.46586080586081
236.990539999999,1.36432234432234
237.086039000001,1.35465201465201
237.148252999999,1.70197802197802
237.23384,1.46827838827839
237.321035,1.22168498168498
237.398760000002,1.30871794871795
237.476105,1.3651282051282
237.554872000001,1.43443223443223
237.629436999999,1.46102564102564
237.717092,1.94695970695971
237.806532000002,1.49970695970696
237.885987,1.5996336996337
237.968125999998,2.09120879120879
238.039344999999,1.47311355311355
238.119508000001,1.53274725274725
238.200963,1.51018315018315
238.287388999999,1.48681318681319
238.359973999999,1.50051282051282
238.439886,1.4803663003663
238.535787999999,3.21377289377289
238.616693,1.47150183150183
238.687539000001,1.60043956043956
238.774844999999,2.13230769230769
238.854298,1.25311355311355
238.934989999998,1.30388278388278
239.007204,1.33369963369963
239.087572000001,1.22007326007326
239.175605,1.31032967032967
239.25652,1.30227106227106
239.335598999999,1.4247619047619
239.416629000001,1.51260073260073
239.49541,1.98241758241758
239.575848000001,1.46021978021978
239.654826000001,1.30952380952381
239.750041999999,1.40139194139194
239.827471999999,1.44410256410256
239.919748,1.54241758241758
239.985903000001,1.48842490842491
240.065102000002,1.72212454212454
240.143153999999,1.78014652014652
240.222899999999,2.10087912087912
240.302855,1.67296703296703
240.397738000002,1.37238095238095
240.476743999999,1.36271062271062
240.556026000001,1.34498168498168
240.636813999999,1.44974358974359
240.716697000001,1.39736263736264
240.794285999998,1.29824175824176
240.872717,1.43362637362637
240.965327,1.72857142857143
241.044570999999,1.79948717948718
241.122943999998,1.06373626373626
241.202289000001,1.14271062271062
241.281105,1.25069597069597
241.358484999999,1.36190476190476
241.436381999999,1.42556776556777
241.533217,3.20087912087912
241.609989,1.51663003663004
241.688824000001,1.72131868131868
241.768396000002,2.24835164835165
241.848636999998,1.3425641025641
241.928451000001,1.40945054945055
242.007611000001,1.42153846153846
242.087125999998,1.68424908424908
242.16732,1.63912087912088
242.245043000001,2.82454212454212
242.325203000002,1.79384615384615
242.421436999999,1.97274725274725
242.500333000001,2.14358974358974
242.582076000001,1.30952380952381
242.658916999999,1.32080586080586
242.737195,1.2974358974359
242.817085999999,1.31677655677656
242.896524999999,1.30227106227106
242.975094999999,3.21538461538462
243.069677999999,1.24908424908425
243.149170000002,1.38688644688645
243.229289000001,1.97113553113553
243.308682,1.15802197802198
243.388145,1.24586080586081
243.468048,1.32322344322344
243.548706,1.38043956043956
243.628366,1.50373626373626
243.705932,1.44168498168498
243.785260000002,1.59076923076923
243.865280999999,1.57304029304029
243.946122000001,1.99450549450549
244.041464000002,1.55692307692308
244.123914000001,1.52791208791209
244.201804000001,1.53032967032967
244.303704999998,1.5214652014652
244.368857000001,1.54322344322344
244.438555,1.51340659340659
244.516550999999,3.21216117216117
244.594473000001,1.47391941391941
244.689502,1.6181684981685
244.769772,2.1774358974359
244.849881000001,1.256336996337
244.927363000002,1.27487179487179
245.005767999999,1.34095238095238
245.085113000002,1.21040293040293
245.160905000001,1.30468864468864
245.25584,1.31113553113553
245.333024999999,1.40864468864469
245.410134,1.50857142857143
245.489776999999,1.92117216117216
245.567851,1.56175824175824
245.64807,1.33289377289377
245.726995000001,1.37318681318681
245.821238000002,1.39655677655678
245.901085999999,1.4392673992674
245.979794,1.55934065934066
246.059208000001,1.63186813186813
246.137280000001,1.73421245421245
246.220524,1.75355311355311
246.295197000001,2.00417582417582
246.390236000001,1.72534798534799
246.468120999999,1.33772893772894
246.548473999999,1.34820512820513
246.627947000001,1.33611721611722
246.708756000001,1.37399267399267
246.786138,1.45619047619048
246.865291000001,1.40945054945055
246.942715,3.12271062271062
247.036949999999,1.44007326007326
247.114563999999,1.51260073260073
247.192259,2.01868131868132
247.270419,1.15157509157509
247.348057,1.25714285714286
247.441204,1.32
247.520969999999,1.39252747252747
247.600114,1.54483516483516
247.678936999999,1.53435897435897
247.755993000001,1.46908424908425
247.834936000001,1.58593406593407
247.913815000001,1.91150183150183
248.009300999999,1.76564102564103
248.089066,1.49487179487179
248.168260000002,1.56498168498168
248.249932999998,1.52468864468864
248.325052999999,1.49970695970696
248.403842,1.56659340659341
248.484390999999,1.47311355311355
248.560877,1.32725274725275
248.652414000001,1.47311355311355
248.731420000002,1.74388278388278
248.811039000001,1.84783882783883
248.890241,1.2643956043956
248.96982,1.32161172161172
249.048743999999,1.23538461538462
249.142208999999,1.19267399267399
249.222407000002,1.36432234432234
249.301405000001,1.37802197802198
249.381131999999,1.4207326007326
249.460432999998,1.5029304029304
249.537903000001,1.79142857142857
249.613855999999,2.05010989010989
249.711052000001,1.33450549450549
249.780475000002,1.38769230769231
249.867756999999,1.42315018315018
249.949635000002,1.45860805860806
250.028693999998,1.49648351648352
250.107741999999,1.9614652014652
250.187344999999,1.68989010989011
250.268188999999,1.68989010989011
250.348144000001,2.12747252747253
250.427476,1.38688644688645
250.506938999999,1.31274725274725
250.587309,1.34739926739927
250.675487,1.34417582417582
250.748116,1.38849816849817
250.836136999998,1.38608058608059
250.923728,3.21216117216117
251.003239,1.45860805860806
251.075927999999,1.49164835164835
251.155372000001,1.96791208791209
251.235284000002,1.15882783882784
251.324107999999,1.2232967032967
251.403329999998,1.31838827838828
251.475034000002,1.37721611721612
251.563583000001,1.53435897435897
251.643350000001,1.5174358974359
251.722827,1.47956043956044
251.801727000002,1.57304029304029
251.879585000001,1.83655677655678
251.975524999998,1.96549450549451
252.054664000001,1.42234432234432
252.134982999999,1.57787545787546
252.215460000001,1.55772893772894
252.295026000001,1.56336996336996
252.374658,1.57545787545788
252.454881000001,1.5029304029304
252.535030000001,1.52630036630037
252.615153999999,1.55450549450549
252.692664000001,1.95501831501831
252.771921,1.37479853479853
252.866789999999,1.24747252747253
252.94557,1.30871794871795
253.025533,1.31113553113553
253.102256999999,1.256336996337
253.181886,1.24989010989011
253.260822999999,1.27003663003663
253.339995000001,1.45860805860806
253.434236000001,1.84945054945055
253.515714000002,1.61897435897436
253.592477000002,1.34659340659341
253.669951000001,1.38124542124542
253.750088,1.42315018315018
253.828796999998,1.50212454212454
253.907462000001,1.51501831501831
253.987348999999,3.19362637362637
254.066778000001,1.66249084249084
254.147164999999,1.86879120879121
254.24257,2.33296703296703
254.321903999999,1.38688644688645
254.402403000001,1.37157509157509
254.481918000001,1.37802197802198
254.560129000001,1.38285714285714
254.638714000002,1.48358974358974
254.717592999998,1.41992673992674
254.795960000001,1.47230769230769
254.889427000001,1.48278388278388
254.968791000001,1.87282051282051
255.045827,1.45216117216117
255.125868000001,1.17252747252747
255.203975000001,1.25714285714286
255.283442000002,1.31677655677656
255.363144000001,1.44571428571429
255.457127999999,1.42879120879121
255.537105999999,1.42556776556777
255.614096999999,1.51018315018315
255.694407000002,1.86717948717949
255.766616999999,1.73582417582418
255.854936000001,1.33208791208791
255.934668000001,1.40380952380952
256.01575,1.4247619047619
256.104695999999,1.59238095238095
256.177133000001,1.59882783882784
256.256640000001,3.09289377289377
256.335952,1.55531135531136
256.416881000001,1.63509157509158
256.504068999998,2.15245421245421
256.584669,1.30307692307692
256.664603,1.29018315018315
256.751892999999,1.31758241758242
256.825335999999,1.34901098901099
256.913245999999,1.41992673992674
256.992737,1.43282051282051
257.066254999999,3.17509157509157
257.146851,1.31919413919414
257.226465,1.55772893772894
257.306493000001,2.04285714285714
257.386677999999,1.25391941391941
257.467511999998,1.34417582417582
257.562851,1.39575091575092
257.642973000001,1.476336996337
257.722824000001,1.5810989010989
257.800873,1.54725274725275
257.880659000002,2.74637362637363
257.959598999999,1.55934065934066
258.037513999999,1.80996336996337
258.129752999999,2.34505494505495
258.207993999999,1.45296703296703
258.287010000002,1.45135531135531
258.364842,1.43523809523809
258.444502999999,1.43684981684982
258.521646000002,1.49567765567766
258.617087000001,1.36996336996337
258.693767000001,1.49648351648352
258.773377999999,1.48278388278388
258.856581999999,1.90908424908425
258.93282,1.43362637362637
259.011963,1.25553113553114
259.091464000002,1.14271062271062
259.170022999998,1.163663003663
259.249159000002,1.27809523809524
259.341170000002,1.43443223443223
259.419623,1.38527472527473
259.497533,1.56417582417582
259.581173,1.57626373626374
259.661454999998,1.97274725274725
259.74091,1.5996336996337
259.832592,1.38205128205128
259.901846999999,1.42234432234432
259.981965999998,1.46021978021978
260.061971000001,1.5996336996337
260.142344,1.75838827838828
260.230634,1.67216117216117
260.304134,1.74710622710623
260.382171,1.77047619047619
260.470035,1.96307692307692
260.549559,1.98161172161172
260.638381999999,1.27487179487179
260.710285999998,1.28212454212454
260.799243999999,1.29501831501831
260.871258000001,1.3240293040293
260.951164000001,1.38769230769231
261.041068999998,1.30549450549451
261.120903000001,1.26842490842491
261.193294,1.32483516483516
261.273201000001,1.81238095238095
261.360850000002,1.35545787545788
261.440881000001,1.25794871794872
261.529041999999,1.33450549450549
261.609009,1.3796336996337
261.688335000001,1.43604395604396
261.76634,1.57465201465201
261.844622000001,1.5214652014652
261.924971999999,1.44410256410256
262.003074000001,1.58915750915751
262.082651000001,2.00820512820513
262.178274,2.15970695970696
262.254975000001,1.47472527472527
262.337600000001,1.41347985347985
262.500361000001,1.41267399267399
262.559798,1.40783882783883
262.621114,1.45860805860806
262.687544,1.44652014652015
262.747545000002,3.20087912087912
262.820078000002,1.50131868131868
262.900870000001,1.6632967032967
262.977793000001,2.19516483516483
263.057156,1.2007326007326
263.136039000001,1.15157509157509
263.229620000001,1.19428571428571
263.312276999999,1.256336996337
263.388037999999,1.39736263736264
263.467838,1.43120879120879
263.547362,2.62630036630037
263.622534000002,1.51985347985348
263.706267999999,1.80996336996337
263.787135000002,2.1814652014652
263.875316,1.36432234432234
263.947236000001,1.42556776556777
264.027952,1.476336996337
264.116681000002,1.68586080586081
264.189201000001,1.76725274725275
264.275723000001,1.63428571428571
264.355774999999,1.45619047619048
264.436379999999,1.56336996336996
264.516151000001,1.81882783882784
264.597938000001,1.71567765567766
264.684361000001,1.25553113553114
264.755798999999,1.2829304029304
264.836447999999,1.30549450549451
264.924015999999,1.34981684981685
265.011954999998,1.45619047619048
265.084997000001,1.24747252747253
265.173177999999,1.29985347985348
265.245544,1.37721611721612
265.333892999999,1.78175824175824
265.404907000002,1.51098901098901
265.484881999999,1.30549450549451
265.566144000001,1.36029304029304
265.645916999999,1.41509157509157
265.72573,1.46505494505495
265.80693,1.50534798534799
265.894844999999,2.61501831501832
265.974695999999,1.52307692307692
266.054811999999,1.71406593406593
266.134561999999,2.37567765567766
266.223831,1.47714285714286
266.294907000002,1.37882783882784
266.383835999999,1.39575091575092
266.464704,1.39575091575092
266.535192000002,1.43120879120879
266.623776000001,1.3981684981685
266.704348999999,1.46666666666667
266.78457,1.51824175824176
266.865000999998,1.96952380952381
266.944623,1.34578754578755
267.034348999999,1.27487179487179
267.115739,1.2603663003663
267.190392000001,1.29098901098901
267.277624000002,1.36996336996337
267.358256999999,1.39333333333333
267.430997000001,3.19201465201465
267.517936999999,1.47150183150183
267.589368000001,1.67860805860806
267.684327,2.23062271062271
267.764669,1.32725274725275
267.844699999999,1.36754578754579
267.922384,1.4021978021978
268.002467999998,1.45619047619048
268.080670000002,1.62783882783883
268.157002,1.65846153846154
268.235519000001,3.20410256410256
268.330329,1.59882783882784
268.408842999998,1.73421245421245
268.489875,2.22095238095238
268.569094999999,1.27809523809524
268.649489,1.30549450549451
268.727184,1.33369963369963
268.805940000001,1.35384615384615
268.886759,1.43846153846154
268.966068,1.383663003663
269.045787999999,1.4167032967033
269.139868000001,1.36673992673993
269.219166999999,1.84783882783883
269.298243000001,1.32483516483516
269.377822000001,1.22974358974359
269.458675999999,1.32
269.538166000001,1.37641025641026
269.613734000001,1.45699633699634
269.694811000001,1.49003663003663
269.782838,3.11304029304029
269.862309999999,1.53919413919414
269.942524999999,1.66571428571429
270.023557,2.21128205128205
270.103072000001,1.50051282051282
270.18343,1.52388278388278
270.262850000001,1.48842490842491
270.351134,1.47230769230769
270.431888,1.48358974358974
270.502952,1.46505494505495
270.590548999999,3.20168498168498
270.670748,1.4578021978022
270.759568999998,1.61091575091575
270.839717999998,2.14842490842491
270.920473999999,1.24908424908425
270.999905000001,1.29421245421245
271.072831,1.20798534798535
271.152864999998,1.19428571428571
271.232925999999,1.3610989010989
271.312761999998,1.3796336996337
271.410103999998,1.36673992673993
271.488506999999,1.51501831501831
271.569469999999,1.87040293040293
271.646050999999,1.81882783882784
271.717392000001,1.31838827838828
271.798884,1.41186813186813
271.886322999999,1.42234432234432
271.966824999999,1.46747252747253
272.049164000001,1.49567765567766
272.127840999998,3.19765567765568
272.207747000001,1.66410256410256
272.287730999999,1.75435897435897
272.368072999999,2.27655677655678
272.448739,1.32967032967033
272.535890000001,1.32
272.615811000001,1.34175824175824
272.695895,1.35626373626374
272.775938000001,1.46505494505495
272.856050000001,1.41589743589744
272.936072999999,2.05575091575092
273.016840999998,1.46021978021978
273.098883000001,1.55772893772894
273.177671999998,1.86234432234432
273.266684999999,1.16527472527473
273.338085999999,1.24666666666667
273.417899999998,1.32
273.501673999999,1.40058608058608
273.594055,1.55450549450549
273.674399,1.53838827838828
273.752581999999,1.69875457875458
273.857539000001,1.57948717948718
273.912151999999,1.83897435897436
273.990488000002,2.06783882783883
274.069041000001,1.41428571428571
274.149348000001,1.55531135531136
274.241059,1.53274725274725
274.318324999999,1.54483516483516
274.397377999999,1.47391941391941
274.477032000002,3.20168498168498
274.556072000001,1.46263736263736
274.634756999999,1.64879120879121
274.716118999999,2.17340659340659
274.808550999999,1.22571428571429
274.887298999999,1.27406593406593
274.966088,1.30952380952381
275.043888,1.33369963369963
275.122406,1.35948717948718
275.201905000001,1.35787545787546
275.282394000001,1.43523809523809
275.376524,1.48761904761905
275.456035,1.86234432234432
275.536124000002,1.56739926739927
275.615598999999,1.29663003663004
275.695322999999,1.36432234432234
275.775401000001,1.40622710622711
275.854149999999,1.46344322344322
275.933265000001,1.48358974358974
276.011379999999,2.07750915750916
276.089879999999,1.68344322344322
276.186278000001,1.79384615384615
276.266129000001,2.27172161172161
276.344013,1.44893772893773
276.424375999998,1.3756043956044
276.503634,1.35142857142857
276.58566,1.35465201465201
276.661598000001,1.42959706959707
276.741173,1.39333333333333
276.8345,3.16542124542125
276.910138,1.44732600732601
276.985761999998,1.63267399267399
277.063684999999,2.08395604395604
277.14241,1.05245421245421
277.238568,1.13787545787546
277.317572000001,1.22087912087912
277.398044,1.32322344322344
277.477383000001,1.45135531135531
277.556659000002,1.41992673992674
277.630473999999,1.57062271062271
277.718101,1.5956043956044
277.791883000001,2.05172161172161
277.881276000001,1.50534798534799
277.959660999998,1.36673992673993
278.039050999999,1.4167032967033
278.123623,1.60527472527473
278.208317000002,1.61494505494505
278.283473999999,1.58351648351648
278.386675999999,3.19443223443223
278.448660999998,1.69472527472527
278.529359000001,1.77772893772894
278.60898,2.23223443223443
278.687827,1.32564102564103
278.775493000001,1.29582417582418
278.855294,1.30388278388278
278.935747000001,1.31032967032967
279.007805,1.3570695970696
279.097247000001,1.25553113553114
279.168386,3.20490842490842
279.249127,1.30710622710623
279.329243000001,1.55934065934066
279.409633000001,2.12505494505494
279.505785,1.26197802197802
279.582833999999,1.33450549450549
279.655100000001,1.36190476190476
279.734473999999,1.44087912087912
279.822181000002,1.49245421245421
279.902506000001,1.52630036630037
279.982335999999,1.5770695970696
280.064395,1.67296703296703
280.143789000001,2.20161172161172
280.224368000001,1.56901098901099
280.313204999998,1.42153846153846
280.383969999999,1.4167032967033
280.465096999999,1.40461538461538
280.551576000001,1.42879120879121
280.633030000001,1.42879120879121
280.712359000001,3.20168498168498
280.792245999999,1.46666666666667
280.880085999999,1.65443223443223
280.960714000002,2.09604395604396
281.040028999999,1.25714285714286
281.120364999998,1.15399267399267
281.201006000001,1.1821978021978
281.282125,1.28051282051282
281.360456999999,1.43443223443223
281.442094000001,1.45860805860806
281.521576000001,1.47472527472527
281.601009,1.56095238095238
281.677737,1.87846153846154
281.758144000001,1.69875457875458
281.838044,1.36029304029304
281.925798999999,1.39655677655678
282.006559999999,1.44168498168498
282.095791000001,1.58915750915751
282.167929000001,1.71003663003663
282.247960999999,1.60527472527473
282.371238000002,1.69150183150183
282.415863000002,1.6632967032967
282.496267999999,2.043663003663
282.576066,1.43846153846154
282.655427000001,1.24989010989011
282.743447000001,1.29985347985348
282.824103999998,1.32322344322344
282.904475000001,1.44249084249084
282.984254999999,1.42798534798535
283.057136999998,1.33289377289377
283.137181000002,1.3014652014652
283.217116999999,1.6447619047619
283.297738000002,1.5625641025641
283.377734000001,1.24263736263736
283.458081,1.3425641025641
283.553579999998,1.39494505494505
283.633048,1.46666666666667
283.708592999998,1.4843956043956
283.786884,2.43128205128205
283.865638999999,1.53677655677656
283.957432999998,1.64315018315018
284.036131000001,2.13553113553114
284.116666999999,1.53919413919414
284.197147999998,1.53194139194139
284.276559999999,1.48600732600733
284.356315000001,1.4803663003663
284.437940000001,1.56417582417582
284.513971999999,1.49809523809524
284.592370999999,1.38849816849817
284.673164999999,1.4989010989011
284.765199000001,1.78739926739927
284.845458000001,1.68989010989011
284.925956,1.25553113553114
285.007234000001,1.28373626373626
285.083471000001,1.21604395604396
285.163978,1.22410256410256
285.244034000002,1.29098901098901
285.324785999998,2.86967032967033
285.404313999999,1.45054945054945
285.482568,1.7189010989011
285.578131000001,2.10571428571429
285.655949999999,1.34175824175824
285.736120999999,1.40783882783883
285.811112,1.43201465201465
285.888375,1.47794871794872
285.968133000001,1.47069597069597
286.059464000002,3.18879120879121
286.139074000001,1.696336996337
286.219063000001,1.82688644688645
286.299068,2.31443223443223
286.379173,1.38205128205128
286.460362,1.36835164835165
286.53877,1.34498168498168
286.618022999998,1.3796336996337
286.698155000001,1.47069597069597
286.791247000001,1.40945054945055
286.871120000001,1.48520146520147
286.951388,1.52791208791209
287.030826000001,1.88571428571429
287.106616999999,1.34417582417582
287.186991,1.12981684981685
287.265888,1.22571428571429
287.346394000001,1.29018315018315
287.426228,1.39897435897436
287.505583000001,1.42153846153846
287.597298,2.92688644688645
287.677102000002,1.51340659340659
287.758346999999,1.64234432234432
287.831079999998,2.17340659340659
287.910375,1.32161172161172
288.006601,1.34739926739927
288.080853,1.51260073260073
288.168008000001,1.6181684981685
288.247837000001,1.62945054945055
288.329133000001,1.56820512820513
288.408210999999,1.5810989010989
288.488925999999,1.5851282051282
288.559971999999,2.03318681318681
288.648063000001,1.36271062271062
288.720817000002,1.25714285714286
288.816169,1.32322344322344
288.888059999999,1.33047619047619
288.975870999999,1.40300366300366
289.058695999999,1.40783882783883
289.131616999999,2.71010989010989
289.209719999999,1.31677655677656
289.299006000001,1.49728937728938
289.379265000001,2.07267399267399
289.45934,1.28937728937729
289.538681000002,1.35384615384615
289.614664999999,1.40542124542125
289.702969000001,1.45538461538462
289.782361000001,1.51098901098901
289.854728999998,1.51985347985348
289.943732000001,1.77531135531136
290.022989,1.56659340659341
290.113385000002,1.76886446886447
290.191984000001,2.27655677655678
290.272046,1.53919413919414
290.352272999998,1.40461538461538
290.432213,1.39010989010989
290.505271000002,1.36190476190476
290.585226,1.41589743589744
290.665201000001,1.41267399267399
290.752921,3.20571428571429
290.840721999999,1.43362637362637
290.920458999999,1.59479853479853
290.993048,2.13069597069597
291.082649,1.2007326007326
291.161487,1.2007326007326
291.233605,1.26681318681319
291.322081,1.35465201465201
291.402491999999,1.43040293040293
291.483120999999,1.45377289377289
291.566778000001,3.19443223443223
291.639147999998,1.52468864468864
291.718153999999,1.66974358974359
291.807403000001,2.18791208791209
291.879977000002,1.33047619047619
291.975041999999,1.35545787545788
292.047186000001,1.38608058608059
292.134559,1.56336996336996
292.215022,1.59721611721612
292.294677000001,1.64153846153846
292.366958000001,1.5174358974359
292.446364999998,1.63025641025641
292.527089000002,1.56417582417582
292.615114,1.91150183150183
292.690579,1.51340659340659
292.770486000001,1.27567765567766
292.859530999999,1.31194139194139
292.939074000001,1.3240293040293
293.018640000001,1.35465201465201
293.106822000001,1.30871794871795
293.177596000001,1.29098901098901
293.257105999999,2.66820512820513
293.337511999998,1.40945054945055
293.425892999999,1.68908424908425
293.498609000001,2.14520146520147
293.579274,1.28373626373626
293.672741999999,1.36835164835165
293.750945,1.40783882783883
293.827853,1.45699633699634
293.907076000001,1.54161172161172
293.987572999999,1.45135531135531
294.065383000001,1.6221978021978
294.146079,1.76564102564103
294.226638,2.12424908424908
294.32034,1.62139194139194
294.401469999999,1.37076923076923
294.478890000001,1.37157509157509
294.559181000002,1.38446886446886
294.636681000002,1.41347985347985
294.71632,1.50615384615385
294.807149,1.46908424908425
294.884241999999,1.47311355311355
294.963579,1.67054945054945
295.042265999999,1.94695970695971
295.120495000001,1.67457875457875
295.200009,1.18461538461538
295.280482999999,1.24102564102564
295.374855,1.29179487179487
295.454570999999,1.37641025641026
295.534372000001,1.53194139194139
295.608004999999,1.47311355311355
295.686081999999,1.79465201465201
295.765695,1.54
295.860719000001,1.7970695970696
295.941155999999,2.09604395604396
296.01816,1.21846153846154
296.096456,1.36351648351648
296.174962000001,1.48520146520147
296.255410999998,1.56336996336996
296.334377999999,1.50131868131868
296.415760000002,2.34586080586081
296.494465,1.50776556776557
296.588568,1.74549450549451
296.666300999999,2.02271062271062
296.751805,1.15802197802198
